-1.00000006536,0.00370289
-0.999000065356,0.00377324
-0.998000065356,0.00381344
-0.997000065356,0.00392399
-0.996000065356,0.0040044
-0.995000065356,0.0041049
-0.994000065356,0.00415515
-0.993000065356,0.00421545
-0.992000065356,0.00425565
-0.991000065356,0.0042657
-0.990000065356,0.00425565
-0.989000065356,0.00421545
-0.988000065356,0.00417525
-0.987000065356,0.0040647
-0.986000065356,0.0039843
-0.985000065356,0.00389384
-0.984000065356,0.00380339
-0.983000065356,0.00374309
-0.982000065356,0.00374309
-0.981000065356,0.00372299
-0.980000065356,0.00373304
-0.979000065356,0.00380339
-0.978000065356,0.00387374
-0.977000065356,0.0039441
-0.976000065356,0.00403455
-0.975000065356,0.00413505
-0.974000065356,0.00421545
-0.973000065356,0.00427575
-0.972000065356,0.0043059
-0.971000065356,0.00435616
-0.970000065356,0.00431595
-0.969000065356,0.00425565
-0.968000065356,0.00421545
-0.967000065356,0.0041451
-0.966000065356,0.00403455
-0.965000065356,0.00397425
-0.964000065356,0.00388379
-0.963000065356,0.00381344
-0.962000065356,0.00381344
-0.961000065356,0.00376319
-0.960000065356,0.00378329
-0.959000065356,0.00386369
-0.958000065356,0.00391394
-0.957000065356,0.0040446
-0.956000065356,0.00413505
-0.955000065356,0.00423555
-0.954000065356,0.00434611
-0.953000065356,0.00437626
-0.952000065356,0.00440641
-0.951000065356,0.00441646
-0.950000065356,0.00443656
-0.949000065356,0.00433606
-0.948000065356,0.00433606
-0.947000065356,0.00421545
-0.946000065356,0.004125
-0.945000065356,0.0040647
-0.944000065356,0.0039642
-0.943000065356,0.00389384
-0.942000065356,0.00385364
-0.941000065356,0.00383354
-0.940000065356,0.00390389
-0.939000065356,0.00395415
-0.938000065356,0.00399435
-0.937000065356,0.00411495
-0.936000065356,0.0041853
-0.935000065356,0.00427575
-0.934000065356,0.00436621
-0.933000065356,0.00441646
-0.932000065356,0.00438631
-0.931000065356,0.00445666
-0.930000065356,0.00441646
-0.929000065356,0.00435616
-0.928000065356,0.0043059
-0.927000065356,0.00421545
-0.926000065356,0.00415515
-0.925000065356,0.0040647
-0.924000065356,0.0039642
-0.923000065356,0.00392399
-0.922000065356,0.00387374
-0.921000065356,0.00388379
-0.920000065356,0.00393405
-0.919000065356,0.00395415
-0.918000065356,0.00399435
-0.917000065356,0.00409485
-0.916000065356,0.00417525
-0.915000065356,0.00425565
-0.914000065356,0.00436621
-0.913000065356,0.00441646
-0.912000065356,0.00442651
-0.911000065356,0.00444661
-0.910000065356,0.00445666
-0.909000065356,0.00438631
-0.908000065356,0.00432601
-0.907000065356,0.00423555
-0.906000065356,0.00415515
-0.905000065356,0.0040245
-0.904000065356,0.00395415
-0.903000065356,0.00389384
-0.902000065356,0.00387374
-0.901000065356,0.00385364
-0.900000065356,0.00382349
-0.899000065356,0.00391394
-0.898000065356,0.00397425
-0.897000065356,0.0040446
-0.896000065356,0.00413505
-0.895000065356,0.00421545
-0.894000065356,0.00431595
-0.893000065356,0.00437626
-0.892000065356,0.00438631
-0.891000065356,0.00442651
-0.890000065356,0.00438631
-0.889000065356,0.00431595
-0.888000065356,0.0042456
-0.887000065356,0.00419535
-0.886000065356,0.00405465
-0.885000065356,0.00397425
-0.884000065356,0.00388379
-0.883000065356,0.00381344
-0.882000065356,0.00378329
-0.881000065356,0.00378329
-0.880000065356,0.00378329
-0.879000065356,0.00378329
-0.878000065356,0.00384359
-0.877000065356,0.00392399
-0.876000065356,0.00403455
-0.875000065356,0.0041049
-0.874000065356,0.0041853
-0.873000065356,0.0042456
-0.872000065356,0.0042657
-0.871000065356,0.0042858
-0.870000065356,0.00427575
-0.869000065356,0.0041853
-0.868000065356,0.0041652
-0.867000065356,0.00405465
-0.866000065356,0.0040044
-0.865000065356,0.00386369
-0.864000065356,0.00377324
-0.863000065356,0.00373304
-0.862000065356,0.00372299
-0.861000065356,0.00367274
-0.860000065356,0.00365264
-0.859000065356,0.00371294
-0.858000065356,0.00377324
-0.857000065356,0.00384359
-0.856000065356,0.00393405
-0.855000065356,0.0040044
-0.854000065356,0.00413505
-0.853000065356,0.00419535
-0.852000065356,0.0042054
-0.851000065356,0.0042054
-0.850000065356,0.0041853
-0.849000065356,0.0041652
-0.848000065356,0.0040848
-0.847000065356,0.00399435
-0.846000065356,0.00391394
-0.845000065356,0.00383354
-0.844000065356,0.00372299
-0.843000065356,0.00368279
-0.842000065356,0.00366269
-0.841000065356,0.00362249
-0.840000065356,0.00364259
-0.839000065356,0.00370289
-0.838000065356,0.00377324
-0.837000065356,0.00384359
-0.836000065356,0.0039441
-0.835000065356,0.00399435
-0.834000065356,0.0040848
-0.833000065356,0.0041853
-0.832000065356,0.00417525
-0.831000065356,0.0042054
-0.830000065356,0.00425565
-0.829000065356,0.0041853
-0.828000065356,0.00411495
-0.827000065356,0.00399435
-0.826000065356,0.00391394
-0.825000065356,0.00382349
-0.824000065356,0.00373304
-0.823000065356,0.00365264
-0.822000065356,0.00364259
-0.821000065356,0.00363254
-0.820000065356,0.00369284
-0.819000065356,0.00369284
-0.818000065356,0.00379334
-0.817000065356,0.00386369
-0.816000065356,0.0039441
-0.815000065356,0.0040044
-0.814000065356,0.00413505
-0.813000065356,0.0042054
-0.812000065356,0.0042255
-0.811000065356,0.0042456
-0.810000065356,0.0042456
-0.809000065356,0.0041652
-0.808000065356,0.0041049
-0.807000065356,0.00403455
-0.806000065356,0.0039441
-0.805000065356,0.00387374
-0.804000065356,0.00376319
-0.803000065356,0.00369284
-0.802000065356,0.00365264
-0.801000065356,0.00365264
-0.800000065356,0.00364259
-0.799000065356,0.00373304
-0.798000065356,0.00373304
-0.797000065356,0.00382349
-0.796000065356,0.00391394
-0.795000065356,0.0040245
-0.794000065356,0.00413505
-0.793000065356,0.0042054
-0.792000065356,0.00419535
-0.791000065356,0.0042255
-0.790000065356,0.0042456
-0.789000065356,0.00417525
-0.788000065356,0.004125
-0.787000065356,0.0040245
-0.786000065356,0.0039642
-0.785000065356,0.00386369
-0.784000065356,0.00376319
-0.783000065356,0.00368279
-0.782000065356,0.00370289
-0.781000065356,0.00366269
-0.780000065356,0.00368279
-0.779000065356,0.00370289
-0.778000065356,0.00376319
-0.777000065356,0.00384359
-0.776000065356,0.0039843
-0.775000065356,0.00405465
-0.774000065356,0.00415515
-0.773000065356,0.00421545
-0.772000065356,0.00421545
-0.771000065356,0.00427575
-0.770000065356,0.00425565
-0.769000065356,0.0041853
-0.768000065356,0.00411495
-0.767000065356,0.0040245
-0.766000065356,0.00392399
-0.765000065356,0.00386369
-0.764000065356,0.00376319
-0.763000065356,0.00370289
-0.762000065356,0.00368279
-0.761000065356,0.00365264
-0.760000065356,0.00365264
-0.759000065356,0.00370289
-0.758000065356,0.00377324
-0.757000065356,0.00387374
-0.756000065356,0.0039441
-0.755000065356,0.00403455
-0.754000065356,0.004125
-0.753000065356,0.00423555
-0.752000065356,0.00421545
-0.751000065356,0.0042657
-0.750000065356,0.0042456
-0.749000065356,0.00421545
-0.748000065356,0.0041652
-0.747000065356,0.00405465
-0.746000065356,0.0039642
-0.745000065356,0.00390389
-0.744000065356,0.00382349
-0.743000065356,0.00376319
-0.742000065356,0.00374309
-0.741000065356,0.00372299
-0.740000065356,0.00372299
-0.739000065356,0.00374309
-0.738000065356,0.00380339
-0.737000065356,0.00389384
-0.736000065356,0.0039843
-0.735000065356,0.00407475
-0.734000065356,0.00417525
-0.733000065356,0.00423555
-0.732000065356,0.0042456
-0.731000065356,0.0042456
-0.730000065356,0.00421545
-0.729000065356,0.0041451
-0.728000065356,0.004125
-0.727000065356,0.00403455
-0.726000065356,0.00392399
-0.725000065356,0.00387374
-0.724000065356,0.00372299
-0.723000065356,0.00367274
-0.722000065356,0.00367274
-0.721000065356,0.00363254
-0.720000065356,0.00362249
-0.719000065356,0.00368279
-0.718000065356,0.00375314
-0.717000065356,0.00380339
-0.716000065356,0.00387374
-0.715000065356,0.0039441
-0.714000065356,0.0040245
-0.713000065356,0.00413505
-0.712000065356,0.00415515
-0.711000065356,0.0041652
-0.710000065356,0.0041451
-0.709000065356,0.0040647
-0.708000065356,0.0040446
-0.707000065356,0.00395415
-0.706000065356,0.00384359
-0.705000065356,0.00376319
-0.704000065356,0.00368279
-0.703000065356,0.00361244
-0.702000065356,0.00359234
-0.701000065356,0.00354209
-0.700000065356,0.00356219
-0.699000065356,0.00361244
-0.698000065356,0.00367274
-0.697000065356,0.00372299
-0.696000065356,0.00379334
-0.695000065356,0.00385364
-0.694000065356,0.00401445
-0.693000065356,0.0040848
-0.692000065356,0.0040848
-0.691000065356,0.0041049
-0.690000065356,0.00409485
-0.689000065356,0.0040245
-0.688000065356,0.0040044
-0.687000065356,0.00388379
-0.686000065356,0.00381344
-0.685000065356,0.00374309
-0.684000065356,0.00363254
-0.683000065356,0.00358229
-0.682000065356,0.00352198
-0.681000065356,0.00351193
-0.680000065356,0.00350188
-0.679000065356,0.00357224
-0.678000065356,0.00360239
-0.677000065356,0.00372299
-0.676000065356,0.00379334
-0.675000065356,0.00388379
-0.674000065356,0.00397425
-0.673000065356,0.0040245
-0.672000065356,0.00405465
-0.671000065356,0.004125
-0.670000065356,0.00407475
-0.669000065356,0.0040245
-0.668000065356,0.0039843
-0.667000065356,0.00389384
-0.666000065356,0.00381344
-0.665000065356,0.00373304
-0.664000065356,0.00360239
-0.663000065356,0.00354209
-0.662000065356,0.00351193
-0.661000065356,0.00348178
-0.660000065356,0.00351193
-0.659000065356,0.00356219
-0.658000065356,0.00360239
-0.657000065356,0.00369284
-0.656000065356,0.00381344
-0.655000065356,0.00385364
-0.654000065356,0.00397425
-0.653000065356,0.0040446
-0.652000065356,0.00407475
-0.651000065356,0.00411495
-0.650000065356,0.0041049
-0.649000065356,0.0040044
-0.648000065356,0.0039843
-0.647000065356,0.00387374
-0.646000065356,0.00382349
-0.645000065356,0.00371294
-0.644000065356,0.00361244
-0.643000065356,0.00355214
-0.642000065356,0.00354209
-0.641000065356,0.00351193
-0.640000065356,0.00349183
-0.639000065356,0.00356219
-0.638000065356,0.00363254
-0.637000065356,0.00368279
-0.636000065356,0.00377324
-0.635000065356,0.00385364
-0.634000065356,0.0039441
-0.633000065356,0.00403455
-0.632000065356,0.00405465
-0.631000065356,0.0041049
-0.630000065356,0.00407475
-0.629000065356,0.00403455
-0.628000065356,0.00393405
-0.627000065356,0.00388379
-0.626000065356,0.00375314
-0.625000065356,0.00369284
-0.624000065356,0.00358229
-0.623000065356,0.00351193
-0.622000065356,0.00347173
-0.621000065356,0.00344158
-0.620000065356,0.00343153
-0.619000065356,0.00346168
-0.618000065356,0.00353204
-0.617000065356,0.00359234
-0.616000065356,0.00369284
-0.615000065356,0.00378329
-0.614000065356,0.00388379
-0.613000065356,0.0039441
-0.612000065356,0.0039843
-0.611000065356,0.00401445
-0.610000065356,0.0040446
-0.609000065356,0.00401445
-0.608000065356,0.00399435
-0.607000065356,0.0039441
-0.606000065356,0.00389384
-0.605000065356,0.00385364
-0.604000065356,0.00380339
-0.603000065356,0.00375314
-0.602000065356,0.00377324
-0.601000065356,0.00378329
-0.600000065356,0.00382349
-0.599000065356,0.00393405
-0.598000065356,0.00403455
-0.597000065356,0.0041853
-0.596000065356,0.00435616
-0.595000065356,0.00449686
-0.594000065356,0.00465766
-0.593000065356,0.00483857
-0.592000065356,0.00494912
-0.591000065356,0.00505967
-0.590000065356,0.00506972
-0.589000065356,0.00502952
-0.588000065356,0.00502952
-0.587000065356,0.00498932
-0.586000065356,0.00487877
-0.585000065356,0.00472802
-0.584000065356,0.00444661
-0.583000065356,0.0042054
-0.582000065356,0.0040647
-0.581000065356,0.00390389
-0.580000065356,0.00378329
-0.579000065356,0.00377324
-0.578000065356,0.00374309
-0.577000065356,0.00373304
-0.576000065356,0.00379334
-0.575000065356,0.00381344
-0.574000065356,0.00388379
-0.573000065356,0.00392399
-0.572000065356,0.00395415
-0.571000065356,0.00395415
-0.570000065356,0.0039642
-0.569000065356,0.00386369
-0.568000065356,0.00380339
-0.567000065356,0.00370289
-0.566000065356,0.00358229
-0.565000065356,0.00348178
-0.564000065356,0.00338128
-0.563000065356,0.00328078
-0.562000065356,0.00331093
-0.561000065356,0.00330088
-0.560000065356,0.00334108
-0.559000065356,0.00343153
-0.558000065356,0.00350188
-0.557000065356,0.00359234
-0.556000065356,0.00369284
-0.555000065356,0.00377324
-0.554000065356,0.00386369
-0.553000065356,0.0039843
-0.552000065356,0.0040044
-0.551000065356,0.00405465
-0.550000065356,0.00407475
-0.549000065356,0.0040245
-0.548000065356,0.0039642
-0.547000065356,0.00390389
-0.546000065356,0.00379334
-0.545000065356,0.00372299
-0.544000065356,0.00363254
-0.543000065356,0.00355214
-0.542000065356,0.00354209
-0.541000065356,0.00354209
-0.540000065356,0.00349183
-0.539000065356,0.00358229
-0.538000065356,0.00364259
-0.537000065356,0.00372299
-0.536000065356,0.00384359
-0.535000065356,0.00391394
-0.534000065356,0.0040245
-0.533000065356,0.00409485
-0.532000065356,0.0040848
-0.531000065356,0.00413505
-0.530000065356,0.0041652
-0.529000065356,0.0040848
-0.528000065356,0.0040446
-0.527000065356,0.0039441
-0.526000065356,0.00385364
-0.525000065356,0.00375314
-0.524000065356,0.00365264
-0.523000065356,0.00357224
-0.522000065356,0.00359234
-0.521000065356,0.00351193
-0.520000065356,0.00354209
-0.519000065356,0.00365264
-0.518000065356,0.00370289
-0.517000065356,0.00379334
-0.516000065356,0.00390389
-0.515000065356,0.00393405
-0.514000065356,0.00403455
-0.513000065356,0.00407475
-0.512000065356,0.0041049
-0.511000065356,0.0041652
-0.510000065356,0.00417525
-0.509000065356,0.0041049
-0.508000065356,0.00401445
-0.507000065356,0.0039843
-0.506000065356,0.00387374
-0.505000065356,0.00381344
-0.504000065356,0.00373304
-0.503000065356,0.00364259
-0.502000065356,0.00360239
-0.501000065356,0.00357224
-0.500000065356,0.00358229
-0.499000065356,0.00365264
-0.498000065356,0.00367274
-0.497000065356,0.00377324
-0.496000065356,0.00387374
-0.495000065356,0.0039441
-0.494000065356,0.0040245
-0.493000065356,0.004125
-0.492000065356,0.004125
-0.491000065356,0.00413505
-0.490000065356,0.0041451
-0.489000065356,0.00411495
-0.488000065356,0.0040446
-0.487000065356,0.0039642
-0.486000065356,0.00388379
-0.485000065356,0.00379334
-0.484000065356,0.00369284
-0.483000065356,0.00358229
-0.482000065356,0.00358229
-0.481000065356,0.00355214
-0.480000065356,0.00358229
-0.479000065356,0.00364259
-0.478000065356,0.00367274
-0.477000065356,0.00373304
-0.476000065356,0.00383354
-0.475000065356,0.00392399
-0.474000065356,0.00401445
-0.473000065356,0.00409485
-0.472000065356,0.00411495
-0.471000065356,0.00415515
-0.470000065356,0.00417525
-0.469000065356,0.0041049
-0.468000065356,0.0040647
-0.467000065356,0.0039642
-0.466000065356,0.00390389
-0.465000065356,0.00380339
-0.464000065356,0.00374309
-0.463000065356,0.00365264
-0.462000065356,0.00360239
-0.461000065356,0.00355214
-0.460000065356,0.00355214
-0.459000065356,0.00362249
-0.458000065356,0.00370289
-0.457000065356,0.00382349
-0.456000065356,0.00391394
-0.455000065356,0.00397425
-0.454000065356,0.00405465
-0.453000065356,0.00411495
-0.452000065356,0.0041451
-0.451000065356,0.00419535
-0.450000065356,0.0042255
-0.449000065356,0.0041652
-0.448000065356,0.00409485
-0.447000065356,0.0040245
-0.446000065356,0.00391394
-0.445000065356,0.00386369
-0.444000065356,0.00376319
-0.443000065356,0.00368279
-0.442000065356,0.00364259
-0.441000065356,0.00362249
-0.440000065356,0.00365264
-0.439000065356,0.00369284
-0.438000065356,0.00378329
-0.437000065356,0.00385364
-0.436000065356,0.00393405
-0.435000065356,0.0040245
-0.434000065356,0.00411495
-0.433000065356,0.00421545
-0.432000065356,0.0042657
-0.431000065356,0.0042657
-0.430000065356,0.00427575
-0.429000065356,0.0042456
-0.428000065356,0.00419535
-0.427000065356,0.00413505
-0.426000065356,0.0040446
-0.425000065356,0.0039441
-0.424000065356,0.00384359
-0.423000065356,0.00379334
-0.422000065356,0.00376319
-0.421000065356,0.00375314
-0.420000065356,0.00372299
-0.419000065356,0.00380339
-0.418000065356,0.00385364
-0.417000065356,0.00393405
-0.416000065356,0.00403455
-0.415000065356,0.00409485
-0.414000065356,0.0042054
-0.413000065356,0.0043059
-0.412000065356,0.0043059
-0.411000065356,0.00438631
-0.410000065356,0.00437626
-0.409000065356,0.00432601
-0.408000065356,0.00425565
-0.407000065356,0.00419535
-0.406000065356,0.0040848
-0.405000065356,0.0040245
-0.404000065356,0.0039441
-0.403000065356,0.00382349
-0.402000065356,0.00380339
-0.401000065356,0.00381344
-0.400000065356,0.00379334
-0.399000065356,0.00383354
-0.398000065356,0.00392399
-0.397000065356,0.00397425
-0.396000065356,0.0040647
-0.395000065356,0.00413505
-0.394000065356,0.00427575
-0.393000065356,0.00433606
-0.392000065356,0.00435616
-0.391000065356,0.00438631
-0.390000065356,0.00437626
-0.389000065356,0.00435616
-0.388000065356,0.00427575
-0.387000065356,0.00421545
-0.386000065356,0.0041049
-0.385000065356,0.00405465
-0.384000065356,0.00392399
-0.383000065356,0.00383354
-0.382000065356,0.00381344
-0.381000065356,0.00379334
-0.380000065356,0.00379334
-0.379000065356,0.00384359
-0.378000065356,0.00390389
-0.377000065356,0.0039642
-0.376000065356,0.0040245
-0.375000065356,0.0041049
-0.374000065356,0.00425565
-0.373000065356,0.00434611
-0.372000065356,0.00431595
-0.371000065356,0.00439636
-0.370000065356,0.00435616
-0.369000065356,0.00432601
-0.368000065356,0.00425565
-0.367000065356,0.00417525
-0.366000065356,0.00407475
-0.365000065356,0.0039843
-0.364000065356,0.00389384
-0.363000065356,0.00381344
-0.362000065356,0.00379334
-0.361000065356,0.00375314
-0.360000065356,0.00374309
-0.359000065356,0.00380339
-0.358000065356,0.00382349
-0.357000065356,0.00390389
-0.356000065356,0.0040044
-0.355000065356,0.0040647
-0.354000065356,0.0041451
-0.353000065356,0.00425565
-0.352000065356,0.00425565
-0.351000065356,0.00427575
-0.350000065356,0.00431595
-0.349000065356,0.00419535
-0.348000065356,0.0041451
-0.347000065356,0.00407475
-0.346000065356,0.00397425
-0.345000065356,0.00388379
-0.344000065356,0.00379334
-0.343000065356,0.00371294
-0.342000065356,0.00367274
-0.341000065356,0.00361244
-0.340000065356,0.00361244
-0.339000065356,0.00365264
-0.338000065356,0.00370289
-0.337000065356,0.00379334
-0.336000065356,0.00386369
-0.335000065356,0.00392399
-0.334000065356,0.0040647
-0.333000065356,0.0041652
-0.332000065356,0.0041451
-0.331000065356,0.00417525
-0.330000065356,0.0041652
-0.329000065356,0.004125
-0.328000065356,0.00407475
-0.327000065356,0.00399435
-0.326000065356,0.00388379
-0.325000065356,0.00378329
-0.324000065356,0.00370289
-0.323000065356,0.00365264
-0.322000065356,0.00362249
-0.321000065356,0.00357224
-0.320000065356,0.00357224
-0.319000065356,0.00362249
-0.318000065356,0.00367274
-0.317000065356,0.00375314
-0.316000065356,0.00388379
-0.315000065356,0.00391394
-0.314000065356,0.0040647
-0.313000065356,0.00411495
-0.312000065356,0.00413505
-0.311000065356,0.0041652
-0.310000065356,0.00417525
-0.309000065356,0.0041049
-0.308000065356,0.00409485
-0.307000065356,0.0040245
-0.306000065356,0.00391394
-0.305000065356,0.00385364
-0.304000065356,0.00375314
-0.303000065356,0.00364259
-0.302000065356,0.00362249
-0.301000065356,0.00357224
-0.300000065356,0.00357224
-0.299000065356,0.00364259
-0.298000065356,0.00372299
-0.297000065356,0.00375314
-0.296000065356,0.00388379
-0.295000065356,0.0039642
-0.294000065356,0.00405465
-0.293000065356,0.00413505
-0.292000065356,0.00417525
-0.291000065356,0.00417525
-0.290000065356,0.00417525
-0.289000065356,0.0041049
-0.288000065356,0.00407475
-0.287000065356,0.00401445
-0.286000065356,0.00390389
-0.285000065356,0.00383354
-0.284000065356,0.00372299
-0.283000065356,0.00366269
-0.282000065356,0.00363254
-0.281000065356,0.00363254
-0.280000065356,0.00359234
-0.279000065356,0.00364259
-0.278000065356,0.00365264
-0.277000065356,0.00376319
-0.276000065356,0.00388379
-0.275000065356,0.0039642
-0.274000065356,0.0040446
-0.273000065356,0.0041451
-0.272000065356,0.00417525
-0.271000065356,0.00419535
-0.270000065356,0.0042054
-0.269000065356,0.004125
-0.268000065356,0.0040848
-0.267000065356,0.0040446
-0.266000065356,0.00391394
-0.265000065356,0.00381344
-0.264000065356,0.00374309
-0.263000065356,0.00365264
-0.262000065356,0.00364259
-0.261000065356,0.00361244
-0.260000065356,0.00362249
-0.259000065356,0.00365264
-0.258000065356,0.00373304
-0.257000065356,0.00375314
-0.256000065356,0.00390389
-0.255000065356,0.0039843
-0.254000065356,0.00407475
-0.253000065356,0.00413505
-0.252000065356,0.00417525
-0.251000065356,0.0042054
-0.250000065356,0.0042054
-0.249000065356,0.00415515
-0.248000065356,0.004125
-0.247000065356,0.00405465
-0.246000065356,0.00393405
-0.245000065356,0.00388379
-0.244000065356,0.00378329
-0.243000065356,0.00370289
-0.242000065356,0.00367274
-0.241000065356,0.00363254
-0.240000065356,0.00359234
-0.239000065356,0.00369284
-0.238000065356,0.00371294
-0.237000065356,0.00378329
-0.236000065356,0.00390389
-0.235000065356,0.00399435
-0.234000065356,0.00409485
-0.233000065356,0.0041652
-0.232000065356,0.0041652
-0.231000065356,0.0041853
-0.230000065356,0.0042456
-0.229000065356,0.00417525
-0.228000065356,0.0041451
-0.227000065356,0.00407475
-0.226000065356,0.0039642
-0.225000065356,0.00387374
-0.224000065356,0.00376319
-0.223000065356,0.00368279
-0.222000065356,0.00367274
-0.221000065356,0.00361244
-0.220000065356,0.00360239
-0.219000065356,0.00370289
-0.218000065356,0.00373304
-0.217000065356,0.00381344
-0.216000065356,0.00392399
-0.215000065356,0.0039843
-0.214000065356,0.0040848
-0.213000065356,0.00417525
-0.212000065356,0.00421545
-0.211000065356,0.00423555
-0.210000065356,0.0042456
-0.209000065356,0.00419535
-0.208000065356,0.004125
-0.207000065356,0.0041049
-0.206000065356,0.0040044
-0.205000065356,0.00392399
-0.204000065356,0.00383354
-0.203000065356,0.00373304
-0.202000065356,0.00368279
-0.201000065356,0.00366269
-0.200000065356,0.00362249
-0.199000065356,0.00368279
-0.198000065356,0.00372299
-0.197000065356,0.00382349
-0.196000065356,0.00391394
-0.195000065356,0.0039843
-0.194000065356,0.0040446
-0.193000065356,0.0041451
-0.192000065356,0.00417525
-0.191000065356,0.0041853
-0.190000065356,0.0042054
-0.189000065356,0.00413505
-0.188000065356,0.00407475
-0.187000065356,0.00403455
-0.186000065356,0.0039441
-0.185000065356,0.00384359
-0.184000065356,0.00375314
-0.183000065356,0.00363254
-0.182000065356,0.00362249
-0.181000065356,0.00358229
-0.180000065356,0.00357224
-0.179000065356,0.00361244
-0.178000065356,0.00367274
-0.177000065356,0.00372299
-0.176000065356,0.00382349
-0.175000065356,0.00388379
-0.174000065356,0.0039642
-0.173000065356,0.00407475
-0.172000065356,0.00407475
-0.171000065356,0.004125
-0.170000065356,0.0041451
-0.169000065356,0.0040647
-0.168000065356,0.0039642
-0.167000065356,0.0039441
-0.166000065356,0.00380339
-0.165000065356,0.00370289
-0.164000065356,0.00363254
-0.163000065356,0.00356219
-0.162000065356,0.00354209
-0.161000065356,0.00353204
-0.160000065356,0.00350188
-0.159000065356,0.00355214
-0.158000065356,0.00359234
-0.157000065356,0.00368279
-0.156000065356,0.00377324
-0.155000065356,0.00385364
-0.154000065356,0.00395415
-0.153000065356,0.00403455
-0.152000065356,0.0040446
-0.151000065356,0.00409485
-0.150000065356,0.00409485
-0.149000065356,0.0040446
-0.148000065356,0.0040245
-0.147000065356,0.0039642
-0.146000065356,0.00387374
-0.145000065356,0.00377324
-0.144000065356,0.00367274
-0.143000065356,0.00357224
-0.142000065356,0.00353204
-0.141000065356,0.00351193
-0.140000065356,0.00349183
-0.139000065356,0.00352198
-0.138000065356,0.00358229
-0.137000065356,0.00364259
-0.136000065356,0.00376319
-0.135000065356,0.00384359
-0.134000065356,0.0039441
-0.133000065356,0.00401445
-0.132000065356,0.00403455
-0.131000065356,0.00405465
-0.130000065356,0.0040848
-0.129000065356,0.00403455
-0.128000065356,0.00399435
-0.127000065356,0.00392399
-0.126000065356,0.00383354
-0.125000065356,0.00373304
-0.124000065356,0.00363254
-0.123000065356,0.00355214
-0.122000065356,0.00355214
-0.121000065356,0.00351193
-0.120000065356,0.00348178
-0.119000065356,0.00351193
-0.118000065356,0.00354209
-0.117000065356,0.00366269
-0.116000065356,0.00376319
-0.115000065356,0.00385364
-0.114000065356,0.00391394
-0.113000065356,0.00405465
-0.112000065356,0.00403455
-0.111000065356,0.0040848
-0.110000065356,0.0041049
-0.109000065356,0.0040647
-0.108000065356,0.00399435
-0.107000065356,0.00392399
-0.106000065356,0.00382349
-0.105000065356,0.00374309
-0.104000065356,0.00364259
-0.103000065356,0.00355214
-0.102000065356,0.00351193
-0.101000065356,0.00348178
-0.100000065356,0.00348178
-0.0990000653556,0.00353204
-0.0980000653556,0.00361244
-0.0970000653556,0.00368279
-0.0960000653556,0.00379334
-0.0950000653556,0.00385364
-0.0940000653556,0.0039441
-0.0930000653556,0.0040044
-0.0920000653556,0.0040647
-0.0910000653556,0.00407475
-0.0900000653556,0.00407475
-0.0890000653556,0.0040044
-0.0880000653556,0.0039642
-0.0870000653556,0.00389384
-0.0860000653556,0.00379334
-0.0850000653556,0.00367274
-0.0840000653556,0.00358229
-0.0830000653556,0.00348178
-0.0820000653556,0.00343153
-0.0810000653556,0.00338128
-0.0800000653556,0.00337123
-0.0790000653556,0.00342148
-0.0780000653556,0.00349183
-0.0770000653556,0.00355214
-0.0760000653556,0.00366269
-0.0750000653556,0.00375314
-0.0740000653556,0.00386369
-0.0730000653556,0.0039843
-0.0720000653556,0.0040245
-0.0710000653556,0.0040446
-0.0700000653556,0.00415515
-0.0690000653556,0.0041652
-0.0680000653556,0.00415515
-0.0670000653556,0.004125
-0.0660000653556,0.00405465
-0.0650000653556,0.0040245
-0.0640000653556,0.0039642
-0.0630000653556,0.00393405
-0.0620000653556,0.0039843
-0.0610000653556,0.00399435
-0.0600000653556,0.00407475
-0.0590000653556,0.0042255
-0.0580000653556,0.00442651
-0.0570000653556,0.00455716
-0.0560000653556,0.00472802
-0.0550000653556,0.00487877
-0.0540000653556,0.00495917
-0.0530000653556,0.00513003
-0.0520000653556,0.00520038
-0.0510000653556,0.00525063
-0.0500000653556,0.00526068
-0.0490000653556,0.00508982
-0.0480000653556,0.00487877
-0.0470000653556,0.00465766
-0.0460000653556,0.00443656
-0.0450000653556,0.0042456
-0.0440000653556,0.00405465
-0.0430000653556,0.00381344
-0.0420000653556,0.00371294
-0.0410000653556,0.00358229
-0.0400000653556,0.00350188
-0.0390000653556,0.00347173
-0.0380000653556,0.00349183
-0.0370000653556,0.00355214
-0.0360000653556,0.00363254
-0.0350000653556,0.00370289
-0.0340000653556,0.00378329
-0.0330000653556,0.00384359
-0.0320000653556,0.00383354
-0.0310000653556,0.00389384
-0.0300000653556,0.00391394
-0.0290000653556,0.00383354
-0.0280000653556,0.00377324
-0.0270000653556,0.00375314
-0.0260000653556,0.00363254
-0.0250000653556,0.00360239
-0.0240000653556,0.00356219
-0.0230000653556,0.00348178
-0.0220000653556,0.00348178
-0.0210000653556,0.00343153
-0.0200000653556,0.00344158
-0.0190000653556,0.00348178
-0.0180000653556,0.00355214
-0.0170000653556,0.00362249
-0.0160000653556,0.00372299
-0.0150000653556,0.00379334
-0.0140000653556,0.00390389
-0.0130000653556,0.00401445
-0.0120000653556,0.0040647
-0.0110000653556,0.0041049
-0.0100000653556,0.0041451
-0.00900006535562,0.00407475
-0.00800006535562,0.00403455
-0.00700006535562,0.00395415
-0.00600006535562,0.00386369
-0.00500006535562,0.00379334
-0.00400006535562,0.00371294
-0.00300006535562,0.00359234
-0.00200006535562,0.00359234
-0.00100006535562,0.00356219
-6.53556249119e-008,0.00353204
0.000999934644375,0.00355214
0.00199993464438,0.00362249
0.00299993464438,0.00367274
0.00399993464438,0.00380339
0.00499993464438,0.00388379
0.00599993464438,0.0039642
0.00699993464438,0.0040647
0.00799993464438,0.0040647
0.00899993464438,0.00411495
0.00999993464438,0.00415515
0.0109999346444,0.0040848
0.0119999346444,0.00403455
0.0129999346444,0.00397425
0.0139999346444,0.00382349
0.0149999346444,0.00374309
0.0159999346444,0.00369284
0.0169999346444,0.00359234
0.0179999346444,0.00354209
0.0189999346444,0.00353204
0.0199999346444,0.00351193
0.0209999346444,0.00358229
0.0219999346444,0.00365264
0.0229999346444,0.00372299
0.0239999346444,0.00381344
0.0249999346444,0.00388379
0.0259999346444,0.00397425
0.0269999346444,0.00405465
0.0279999346444,0.0040848
0.0289999346444,0.004125
0.0299999346444,0.00413505
0.0309999346444,0.0040848
0.0319999346444,0.0040647
0.0329999346444,0.00401445
0.0339999346444,0.00389384
0.0349999346444,0.00379334
0.0359999346444,0.00373304
0.0369999346444,0.00361244
0.0379999346444,0.00358229
0.0389999346444,0.00356219
0.0399999346444,0.00349183
0.0409999346444,0.00358229
0.0419999346444,0.00363254
0.0429999346444,0.00371294
0.0439999346444,0.00381344
0.0449999346444,0.00389384
0.0459999346444,0.00397425
0.0469999346444,0.00407475
0.0479999346444,0.0040848
0.0489999346444,0.00411495
0.0499999346444,0.00413505
0.0509999346444,0.00411495
0.0519999346444,0.0040446
0.0529999346444,0.0040245
0.0539999346444,0.00391394
0.0549999346444,0.00382349
0.0559999346444,0.00373304
0.0569999346444,0.00362249
0.0579999346444,0.00362249
0.0589999346444,0.00359234
0.0599999346444,0.00356219
0.0609999346444,0.00364259
0.0619999346444,0.00370289
0.0629999346444,0.00375314
0.0639999346444,0.00385364
0.0649999346444,0.00389384
0.0659999346444,0.00397425
0.0669999346444,0.00407475
0.0679999346444,0.0041049
0.0689999346444,0.0041853
0.0699999346444,0.00417525
0.0709999346444,0.00413505
0.0719999346444,0.0040647
0.0729999346444,0.00399435
0.0739999346444,0.00387374
0.0749999346444,0.00380339
0.0759999346444,0.00374309
0.0769999346444,0.00363254
0.0779999346444,0.00360239
0.0789999346444,0.00358229
0.0799999346444,0.00357224
0.0809999346444,0.00362249
0.0819999346444,0.00367274
0.0829999346444,0.00370289
0.0839999346444,0.00382349
0.0849999346444,0.00392399
0.0859999346444,0.0040446
0.0869999346444,0.004125
0.0879999346444,0.00417525
0.0889999346444,0.0041853
0.0899999346444,0.0042054
0.0909999346444,0.0041652
0.0919999346444,0.004125
0.0929999346444,0.00409485
0.0939999346444,0.00395415
0.0949999346444,0.00389384
0.0959999346444,0.00381344
0.0969999346444,0.00371294
0.0979999346444,0.00369284
0.0989999346444,0.00368279
0.0999999346444,0.00364259
0.100999934644,0.00370289
0.101999934644,0.00375314
0.102999934644,0.00381344
0.103999934644,0.00388379
0.104999934644,0.0039843
0.105999934644,0.00407475
0.106999934644,0.00417525
0.107999934644,0.00423555
0.108999934644,0.0042657
0.109999934644,0.0042858
0.110999934644,0.00425565
0.111999934644,0.0041652
0.112999934644,0.0041049
0.113999934644,0.0040245
0.114999934644,0.00397425
0.115999934644,0.00389384
0.116999934644,0.00375314
0.117999934644,0.00374309
0.118999934644,0.00370289
0.119999934644,0.00373304
0.120999934644,0.00380339
0.121999934644,0.00386369
0.122999934644,0.00391394
0.123999934644,0.0039843
0.124999934644,0.00403455
0.125999934644,0.0041451
0.126999934644,0.00427575
0.127999934644,0.0043059
0.128999934644,0.00434611
0.129999934644,0.00437626
0.130999934644,0.00431595
0.131999934644,0.0042858
0.132999934644,0.00421545
0.133999934644,0.00413505
0.134999934644,0.00405465
0.135999934644,0.0039642
0.136999934644,0.00384359
0.137999934644,0.00383354
0.138999934644,0.00379334
0.139999934644,0.00379334
0.140999934644,0.00383354
0.141999934644,0.00389384
0.142999934644,0.0039441
0.143999934644,0.0040245
0.144999934644,0.00411495
0.145999934644,0.00419535
0.146999934644,0.0043059
0.147999934644,0.00429585
0.148999934644,0.00435616
0.149999934644,0.00438631
0.150999934644,0.00435616
0.151999934644,0.0042858
0.152999934644,0.00423555
0.153999934644,0.00409485
0.154999934644,0.00403455
0.155999934644,0.0039642
0.156999934644,0.00382349
0.157999934644,0.00382349
0.158999934644,0.00377324
0.159999934644,0.00376319
0.160999934644,0.00382349
0.161999934644,0.00387374
0.162999934644,0.00391394
0.163999934644,0.00399435
0.164999934644,0.0040446
0.165999934644,0.00413505
0.166999934644,0.00425565
0.167999934644,0.00431595
0.168999934644,0.0043059
0.169999934644,0.00432601
0.170999934644,0.0042858
0.171999934644,0.00425565
0.172999934644,0.00419535
0.173999934644,0.00407475
0.174999934644,0.0039843
0.175999934644,0.00387374
0.176999934644,0.00378329
0.177999934644,0.00375314
0.178999934644,0.00374309
0.179999934644,0.00371294
0.180999934644,0.00374309
0.181999934644,0.00379334
0.182999934644,0.00384359
0.183999934644,0.0039441
0.184999934644,0.00403455
0.185999934644,0.00407475
0.186999934644,0.0041853
0.187999934644,0.0042255
0.188999934644,0.00423555
0.189999934644,0.0042657
0.190999934644,0.0042054
0.191999934644,0.00413505
0.192999934644,0.0040647
0.193999934644,0.0039642
0.194999934644,0.00390389
0.195999934644,0.00381344
0.196999934644,0.00372299
0.197999934644,0.00367274
0.198999934644,0.00364259
0.199999934644,0.00363254
0.200999934644,0.00369284
0.201999934644,0.00374309
0.202999934644,0.00377324
0.203999934644,0.00385364
0.204999934644,0.00395415
0.205999934644,0.0040245
0.206999934644,0.0041049
0.207999934644,0.0041652
0.208999934644,0.00415515
0.209999934644,0.0042255
0.210999934644,0.00413505
0.211999934644,0.0041049
0.212999934644,0.0040446
0.213999934644,0.00395415
0.214999934644,0.00385364
0.215999934644,0.00379334
0.216999934644,0.00369284
0.217999934644,0.00364259
0.218999934644,0.00362249
0.219999934644,0.00359234
0.220999934644,0.00364259
0.221999934644,0.00370289
0.222999934644,0.00373304
0.223999934644,0.00383354
0.224999934644,0.00390389
0.225999934644,0.00399435
0.226999934644,0.0041049
0.227999934644,0.00415515
0.228999934644,0.00415515
0.229999934644,0.00417525
0.230999934644,0.00415515
0.231999934644,0.0040848
0.232999934644,0.0040245
0.233999934644,0.0039441
0.234999934644,0.00387374
0.235999934644,0.00376319
0.236999934644,0.00368279
0.237999934644,0.00364259
0.238999934644,0.00363254
0.239999934644,0.00358229
0.240999934644,0.00363254
0.241999934644,0.00370289
0.242999934644,0.00376319
0.243999934644,0.00386369
0.244999934644,0.0039441
0.245999934644,0.00403455
0.246999934644,0.004125
0.247999934644,0.0042054
0.248999934644,0.0042054
0.249999934644,0.00423555
0.250999934644,0.00417525
0.251999934644,0.0041652
0.252999934644,0.0040647
0.253999934644,0.00393405
0.254999934644,0.00385364
0.255999934644,0.00378329
0.256999934644,0.00368279
0.257999934644,0.00365264
0.258999934644,0.00361244
0.259999934644,0.00361244
0.260999934644,0.00366269
0.261999934644,0.00373304
0.262999934644,0.00379334
0.263999934644,0.00387374
0.264999934644,0.0039642
0.265999934644,0.0040446
0.266999934644,0.00413505
0.267999934644,0.00417525
0.268999934644,0.0042054
0.269999934644,0.0042054
0.270999934644,0.00417525
0.271999934644,0.0041049
0.272999934644,0.00407475
0.273999934644,0.00395415
0.274999934644,0.00389384
0.275999934644,0.00378329
0.276999934644,0.00369284
0.277999934644,0.00364259
0.278999934644,0.00361244
0.279999934644,0.00361244
0.280999934644,0.00364259
0.281999934644,0.00369284
0.282999934644,0.00377324
0.283999934644,0.00388379
0.284999934644,0.0039642
0.285999934644,0.0040446
0.286999934644,0.0041451
0.287999934644,0.0041853
0.288999934644,0.00417525
0.289999934644,0.00419535
0.290999934644,0.00417525
0.291999934644,0.0041652
0.292999934644,0.0041049
0.293999934644,0.0040245
0.294999934644,0.00393405
0.295999934644,0.00382349
0.296999934644,0.00377324
0.297999934644,0.00372299
0.298999934644,0.00365264
0.299999934644,0.00363254
0.300999934644,0.00368279
0.301999934644,0.00375314
0.302999934644,0.00380339
0.303999934644,0.00392399
0.304999934644,0.00401445
0.305999934644,0.00409485
0.306999934644,0.0042054
0.307999934644,0.0042456
0.308999934644,0.00425565
0.309999934644,0.0042657
0.310999934644,0.0042255
0.311999934644,0.00417525
0.312999934644,0.00415515
0.313999934644,0.0040044
0.314999934644,0.00391394
0.315999934644,0.00380339
0.316999934644,0.00376319
0.317999934644,0.00370289
0.318999934644,0.00370289
0.319999934644,0.00364259
0.320999934644,0.00367274
0.321999934644,0.00371294
0.322999934644,0.00379334
0.323999934644,0.00388379
0.324999934644,0.00399435
0.325999934644,0.0040647
0.326999934644,0.00417525
0.327999934644,0.00423555
0.328999934644,0.00429585
0.329999934644,0.00429585
0.330999934644,0.0043059
0.331999934644,0.0042054
0.332999934644,0.0041451
0.333999934644,0.0040848
0.334999934644,0.0040044
0.335999934644,0.00392399
0.336999934644,0.00379334
0.337999934644,0.00376319
0.338999934644,0.00369284
0.339999934644,0.00366269
0.340999934644,0.00370289
0.341999934644,0.00377324
0.342999934644,0.00381344
0.343999934644,0.00389384
0.344999934644,0.00399435
0.345999934644,0.0040647
0.346999934644,0.0041652
0.347999934644,0.0042054
0.348999934644,0.0042456
0.349999934644,0.00423555
0.350999934644,0.00423555
0.351999934644,0.00417525
0.352999934644,0.004125
0.353999934644,0.00401445
0.354999934644,0.00393405
0.355999934644,0.00386369
0.356999934644,0.00374309
0.357999934644,0.00368279
0.358999934644,0.00365264
0.359999934644,0.00360239
0.360999934644,0.00364259
0.361999934644,0.00369284
0.362999934644,0.00371294
0.363999934644,0.00384359
0.364999934644,0.00393405
0.365999934644,0.0039843
0.366999934644,0.0040848
0.367999934644,0.004125
0.368999934644,0.004125
0.369999934644,0.00419535
0.370999934644,0.00413505
0.371999934644,0.0040848
0.372999934644,0.00401445
0.373999934644,0.00390389
0.374999934644,0.00380339
0.375999934644,0.00378329
0.376999934644,0.00367274
0.377999934644,0.00364259
0.378999934644,0.00361244
0.379999934644,0.00356219
0.380999934644,0.00357224
0.381999934644,0.00362249
0.382999934644,0.00367274
0.383999934644,0.00380339
0.384999934644,0.00389384
0.385999934644,0.0039642
0.386999934644,0.0040446
0.387999934644,0.00411495
0.388999934644,0.0041049
0.389999934644,0.004125
0.390999934644,0.00409485
0.391999934644,0.00409485
0.392999934644,0.00403455
0.393999934644,0.00393405
0.394999934644,0.00384359
0.395999934644,0.00376319
0.396999934644,0.00366269
0.397999934644,0.00360239
0.398999934644,0.00356219
0.399999934644,0.00352198
0.400999934644,0.00361244
0.401999934644,0.00366269
0.402999934644,0.00374309
0.403999934644,0.00381344
0.404999934644,0.00388379
0.405999934644,0.00395415
0.406999934644,0.00407475
0.407999934644,0.00407475
0.408999934644,0.00417525
0.409999934644,0.0041853
0.410999934644,0.00415515
0.411999934644,0.0040647
0.412999934644,0.0040044
0.413999934644,0.00392399
0.414999934644,0.00381344
0.415999934644,0.00374309
0.416999934644,0.00364259
0.417999934644,0.00357224
0.418999934644,0.00355214
0.419999934644,0.00353204
0.420999934644,0.00357224
0.421999934644,0.00362249
0.422999934644,0.00367274
0.423999934644,0.00378329
0.424999934644,0.00386369
0.425999934644,0.00395415
0.426999934644,0.0040446
0.427999934644,0.0040848
0.428999934644,0.00413505
0.429999934644,0.0041652
0.430999934644,0.00411495
0.431999934644,0.00407475
0.432999934644,0.00401445
0.433999934644,0.00391394
0.434999934644,0.00381344
0.435999934644,0.00372299
0.436999934644,0.00366269
0.437999934644,0.00361244
0.438999934644,0.00359234
0.439999934644,0.00353204
0.440999934644,0.00357224
0.441999934644,0.00361244
0.442999934644,0.00366269
0.443999934644,0.00375314
0.444999934644,0.00383354
0.445999934644,0.00393405
0.446999934644,0.00405465
0.447999934644,0.00407475
0.448999934644,0.00413505
0.449999934644,0.0041451
0.450999934644,0.00413505
0.451999934644,0.00405465
0.452999934644,0.0039642
0.453999934644,0.00388379
0.454999934644,0.00376319
0.455999934644,0.00368279
0.456999934644,0.00357224
0.457999934644,0.00350188
0.458999934644,0.00346168
0.459999934644,0.00344158
0.460999934644,0.00345163
0.461999934644,0.00350188
0.462999934644,0.00358229
0.463999934644,0.00366269
0.464999934644,0.00377324
0.465999934644,0.00388379
0.466999934644,0.0039642
0.467999934644,0.00401445
0.468999934644,0.0040848
0.469999934644,0.00415515
0.470999934644,0.0041652
0.471999934644,0.0041652
0.472999934644,0.00415515
0.473999934644,0.00409485
0.474999934644,0.00405465
0.475999934644,0.0040446
0.476999934644,0.00395415
0.477999934644,0.0039441
0.478999934644,0.0039843
0.479999934644,0.0040446
0.480999934644,0.0041451
0.481999934644,0.00429585
0.482999934644,0.00445666
0.483999934644,0.00460741
0.484999934644,0.00478832
0.485999934644,0.00495917
0.486999934644,0.00509987
0.487999934644,0.00511997
0.488999934644,0.00513003
0.489999934644,0.00516018
0.490999934644,0.00517023
0.491999934644,0.00502952
0.492999934644,0.00485867
0.493999934644,0.00462751
0.494999934644,0.00442651
0.495999934644,0.0042657
0.496999934644,0.0040647
0.497999934644,0.00386369
0.498999934644,0.00375314
0.499999934644,0.00363254
0.500999934644,0.00361244
0.501999934644,0.00359234
0.502999934644,0.00359234
0.503999934644,0.00367274
0.504999934644,0.00373304
0.505999934644,0.00383354
0.506999934644,0.00389384
0.507999934644,0.0039441
0.508999934644,0.00395415
0.509999934644,0.0039843
0.510999934644,0.00392399
0.511999934644,0.00385364
0.512999934644,0.00379334
0.513999934644,0.00372299
0.514999934644,0.00365264
0.515999934644,0.00356219
0.516999934644,0.00350188
0.517999934644,0.00351193
0.518999934644,0.00352198
0.519999934644,0.00352198
0.520999934644,0.00352198
0.521999934644,0.00361244
0.522999934644,0.00367274
0.523999934644,0.00376319
0.524999934644,0.00383354
0.525999934644,0.00392399
0.526999934644,0.0040245
0.527999934644,0.0040647
0.528999934644,0.00413505
0.529999934644,0.0041652
0.530999934644,0.00415515
0.531999934644,0.00407475
0.532999934644,0.0040446
0.533999934644,0.00393405
0.534999934644,0.00387374
0.535999934644,0.00379334
0.536999934644,0.00368279
0.537999934644,0.00360239
0.538999934644,0.00360239
0.539999934644,0.00358229
0.540999934644,0.00361244
0.541999934644,0.00366269
0.542999934644,0.00374309
0.543999934644,0.00382349
0.544999934644,0.00392399
0.545999934644,0.00399435
0.546999934644,0.0040848
0.547999934644,0.0041451
0.548999934644,0.00415515
0.549999934644,0.0042054
0.550999934644,0.00417525
0.551999934644,0.0041049
0.552999934644,0.0040848
0.553999934644,0.00399435
0.554999934644,0.00389384
0.555999934644,0.00380339
0.556999934644,0.00369284
0.557999934644,0.00364259
0.558999934644,0.00361244
0.559999934644,0.00357224
0.560999934644,0.00358229
0.561999934644,0.00368279
0.562999934644,0.00374309
0.563999934644,0.00382349
0.564999934644,0.00393405
0.565999934644,0.00401445
0.566999934644,0.004125
0.567999934644,0.00417525
0.568999934644,0.00419535
0.569999934644,0.00419535
0.570999934644,0.0041853
0.571999934644,0.004125
0.572999934644,0.0041049
0.573999934644,0.00399435
0.574999934644,0.00390389
0.575999934644,0.00382349
0.576999934644,0.00374309
0.577999934644,0.00366269
0.578999934644,0.00365264
0.579999934644,0.00362249
0.580999934644,0.00367274
0.581999934644,0.00374309
0.582999934644,0.00376319
0.583999934644,0.00387374
0.584999934644,0.0039441
0.585999934644,0.00401445
0.586999934644,0.00413505
0.587999934644,0.0041853
0.588999934644,0.00421545
0.589999934644,0.0042456
0.590999934644,0.00421545
0.591999934644,0.00417525
0.592999934644,0.00411495
0.593999934644,0.0040245
0.594999934644,0.00391394
0.595999934644,0.00385364
0.596999934644,0.00377324
0.597999934644,0.00369284
0.598999934644,0.00364259
0.599999934644,0.00365264
0.600999934644,0.00366269
0.601999934644,0.00375314
0.602999934644,0.00379334
0.603999934644,0.00389384
0.604999934644,0.00395415
0.605999934644,0.00403455
0.606999934644,0.004125
0.607999934644,0.00423555
0.608999934644,0.0042054
0.609999934644,0.00423555
0.610999934644,0.00423555
0.611999934644,0.0041652
0.612999934644,0.004125
0.613999934644,0.0040245
0.614999934644,0.0039642
0.615999934644,0.00387374
0.616999934644,0.00377324
0.617999934644,0.00373304
0.618999934644,0.00371294
0.619999934644,0.00367274
0.620999934644,0.00371294
0.621999934644,0.00376319
0.622999934644,0.00382349
0.623999934644,0.00392399
0.624999934644,0.00401445
0.625999934644,0.0040848
0.626999934644,0.00419535
0.627999934644,0.00425565
0.628999934644,0.00427575
0.629999934644,0.00431595
0.630999934644,0.00429585
0.631999934644,0.0042255
0.632999934644,0.0041652
0.633999934644,0.0040647
0.634999934644,0.00397425
0.635999934644,0.00392399
0.636999934644,0.00381344
0.637999934644,0.00376319
0.638999934644,0.00373304
0.639999934644,0.00372299
0.640999934644,0.00373304
0.641999934644,0.00380339
0.642999934644,0.00387374
0.643999934644,0.0039843
0.644999934644,0.00405465
0.645999934644,0.00415515
0.646999934644,0.00425565
0.647999934644,0.0042858
0.648999934644,0.00432601
0.649999934644,0.00436621
0.650999934644,0.00434611
0.651999934644,0.0042858
0.652999934644,0.0042456
0.653999934644,0.004125
0.654999934644,0.0040848
0.655999934644,0.00399435
0.656999934644,0.00388379
0.657999934644,0.00384359
0.658999934644,0.00383354
0.659999934644,0.00382349
0.660999934644,0.00386369
0.661999934644,0.00389384
0.662999934644,0.0039441
0.663999934644,0.0040446
0.664999934644,0.00413505
0.665999934644,0.0042255
0.666999934644,0.00433606
0.667999934644,0.00440641
0.668999934644,0.00442651
0.669999934644,0.00442651
0.670999934644,0.00441646
0.671999934644,0.00436621
0.672999934644,0.0042858
0.673999934644,0.0042456
0.674999934644,0.00415515
0.675999934644,0.0040848
0.676999934644,0.0039843
0.677999934644,0.00393405
0.678999934644,0.00390389
0.679999934644,0.00386369
0.680999934644,0.00385364
0.681999934644,0.0039642
0.682999934644,0.00399435
0.683999934644,0.0040848
0.684999934644,0.00417525
0.685999934644,0.0042858
0.686999934644,0.00435616
0.687999934644,0.00444661
0.688999934644,0.00441646
0.689999934644,0.00445666
0.690999934644,0.00444661
0.691999934644,0.00440641
0.692999934644,0.00432601
0.693999934644,0.0042255
0.694999934644,0.00413505
0.695999934644,0.0040647
0.696999934644,0.00393405
0.697999934644,0.00390389
0.698999934644,0.00388379
0.699999934644,0.00386369
0.700999934644,0.00387374
0.701999934644,0.00391394
0.702999934644,0.0039843
0.703999934644,0.00405465
0.704999934644,0.004125
0.705999934644,0.00421545
0.706999934644,0.00432601
0.707999934644,0.00438631
0.708999934644,0.00440641
0.709999934644,0.00440641
0.710999934644,0.00440641
0.711999934644,0.00432601
0.712999934644,0.00429585
0.713999934644,0.00421545
0.714999934644,0.00411495
0.715999934644,0.00403455
0.716999934644,0.00392399
0.717999934644,0.00386369
0.718999934644,0.00383354
0.719999934644,0.00381344
0.720999934644,0.00382349
0.721999934644,0.00387374
0.722999934644,0.00391394
0.723999934644,0.0039843
0.724999934644,0.0040848
0.725999934644,0.00417525
0.726999934644,0.0042858
0.727999934644,0.00435616
0.728999934644,0.00433606
0.729999934644,0.00435616
0.730999934644,0.00435616
0.731999934644,0.00425565
0.732999934644,0.0041853
0.733999934644,0.00411495
0.734999934644,0.0040245
0.735999934644,0.00392399
0.736999934644,0.00379334
0.737999934644,0.00371294
0.738999934644,0.00370289
0.739999934644,0.00369284
0.740999934644,0.00372299
0.741999934644,0.00376319
0.742999934644,0.00381344
0.743999934644,0.00389384
0.744999934644,0.0039843
0.745999934644,0.0040446
0.746999934644,0.00417525
0.747999934644,0.00423555
0.748999934644,0.00427575
0.749999934644,0.0043059
0.750999934644,0.0042858
0.751999934644,0.0042054
0.752999934644,0.0041652
0.753999934644,0.00409485
0.754999934644,0.0040245
0.755999934644,0.00389384
0.756999934644,0.00378329
0.757999934644,0.00374309
0.758999934644,0.00371294
0.759999934644,0.00367274
0.760999934644,0.00365264
0.761999934644,0.00373304
0.762999934644,0.00383354
0.763999934644,0.00392399
0.764999934644,0.00399435
0.765999934644,0.00407475
0.766999934644,0.0041652
0.767999934644,0.00423555
0.768999934644,0.00427575
0.769999934644,0.00431595
0.770999934644,0.0043059
0.771999934644,0.00421545
0.772999934644,0.0041652
0.773999934644,0.0040446
0.774999934644,0.00399435
0.775999934644,0.0039441
0.776999934644,0.00379334
0.777999934644,0.00371294
0.778999934644,0.00372299
0.779999934644,0.00372299
0.780999934644,0.00371294
0.781999934644,0.00378329
0.782999934644,0.00386369
0.783999934644,0.0039441
0.784999934644,0.0040245
0.785999934644,0.00407475
0.786999934644,0.0042054
0.787999934644,0.00425565
0.788999934644,0.0042657
0.789999934644,0.00427575
0.790999934644,0.00429585
0.791999934644,0.00421545
0.792999934644,0.00413505
0.793999934644,0.0040446
0.794999934644,0.00395415
0.795999934644,0.00389384
0.796999934644,0.00380339
0.797999934644,0.00373304
0.798999934644,0.00373304
0.799999934644,0.00369284
0.800999934644,0.00371294
0.801999934644,0.00375314
0.802999934644,0.00382349
0.803999934644,0.00392399
0.804999934644,0.00397425
0.805999934644,0.0040647
0.806999934644,0.0041652
0.807999934644,0.0042456
0.808999934644,0.0042456
0.809999934644,0.00427575
0.810999934644,0.0042456
0.811999934644,0.00421545
0.812999934644,0.0041652
0.813999934644,0.0041049
0.814999934644,0.00401445
0.815999934644,0.00393405
0.816999934644,0.00380339
0.817999934644,0.00375314
0.818999934644,0.00371294
0.819999934644,0.00370289
0.820999934644,0.00368279
0.821999934644,0.00374309
0.822999934644,0.00381344
0.823999934644,0.00389384
0.824999934644,0.0039843
0.825999934644,0.00407475
0.826999934644,0.0041652
0.827999934644,0.00425565
0.828999934644,0.0042657
0.829999934644,0.00429585
0.830999934644,0.0043059
0.831999934644,0.00423555
0.832999934644,0.00419535
0.833999934644,0.0040848
0.834999934644,0.0040044
0.835999934644,0.00393405
0.836999934644,0.00385364
0.837999934644,0.00377324
0.838999934644,0.00377324
0.839999934644,0.00375314
0.840999934644,0.00376319
0.841999934644,0.00382349
0.842999934644,0.00388379
0.843999934644,0.00393405
0.844999934644,0.00405465
0.845999934644,0.0041451
0.846999934644,0.00425565
0.847999934644,0.00432601
0.848999934644,0.00435616
0.849999934644,0.00436621
0.850999934644,0.00436621
0.851999934644,0.00427575
0.852999934644,0.00419535
0.853999934644,0.00411495
0.854999934644,0.0040647
0.855999934644,0.0040044
0.856999934644,0.00386369
0.857999934644,0.00381344
0.858999934644,0.00376319
0.859999934644,0.00372299
0.860999934644,0.00373304
0.861999934644,0.00382349
0.862999934644,0.00387374
0.863999934644,0.00392399
0.864999934644,0.0040044
0.865999934644,0.00409485
0.866999934644,0.0042255
0.867999934644,0.0042858
0.868999934644,0.00431595
0.869999934644,0.00434611
0.870999934644,0.00436621
0.871999934644,0.0042858
0.872999934644,0.0042456
0.873999934644,0.0041853
0.874999934644,0.0041049
0.875999934644,0.00401445
0.876999934644,0.00390389
0.877999934644,0.00381344
0.878999934644,0.00379334
0.879999934644,0.00377324
0.880999934644,0.00378329
0.881999934644,0.00387374
0.882999934644,0.00391394
0.883999934644,0.00399435
0.884999934644,0.00405465
0.885999934644,0.00409485
0.886999934644,0.0042255
0.887999934644,0.0042858
0.888999934644,0.00431595
0.889999934644,0.00433606
0.890999934644,0.00434611
0.891999934644,0.00429585
0.892999934644,0.0042255
0.893999934644,0.004125
0.894999934644,0.00401445
0.895999934644,0.00395415
0.896999934644,0.00384359
0.897999934644,0.00378329
0.898999934644,0.00373304
0.899999934644,0.00371294
0.900999934644,0.00376319
0.901999934644,0.00382349
0.902999934644,0.00386369
0.903999934644,0.00392399
0.904999934644,0.0040044
0.905999934644,0.0040446
0.906999934644,0.0041451
0.907999934644,0.0042255
0.908999934644,0.00423555
0.909999934644,0.00427575
0.910999934644,0.00427575
0.911999934644,0.0042054
0.912999934644,0.0041853
0.913999934644,0.004125
0.914999934644,0.00399435
0.915999934644,0.00390389
0.916999934644,0.00379334
0.917999934644,0.00371294
0.918999934644,0.00369284
0.919999934644,0.00364259
0.920999934644,0.00365264
0.921999934644,0.00371294
0.922999934644,0.00377324
0.923999934644,0.00384359
0.924999934644,0.00395415
0.925999934644,0.0040245
0.926999934644,0.00411495
0.927999934644,0.0041853
0.928999934644,0.0042054
0.929999934644,0.0042456
0.930999934644,0.0042456
0.931999934644,0.0041853
0.932999934644,0.00415515
0.933999934644,0.00403455
0.934999934644,0.00392399
0.935999934644,0.00385364
0.936999934644,0.00379334
0.937999934644,0.00371294
0.938999934644,0.00367274
0.939999934644,0.00369284
0.940999934644,0.00368279
0.941999934644,0.00372299
0.942999934644,0.00376319
0.943999934644,0.00382349
0.944999934644,0.00391394
0.945999934644,0.00399435
0.946999934644,0.004125
0.947999934644,0.0042054
0.948999934644,0.00417525
0.949999934644,0.0042255
0.950999934644,0.00421545
0.951999934644,0.0041451
0.952999934644,0.0041049
0.953999934644,0.0040245
0.954999934644,0.00390389
0.955999934644,0.00383354
0.956999934644,0.00376319
0.957999934644,0.00370289
0.958999934644,0.00370289
0.959999934644,0.00365264
0.960999934644,0.00366269
0.961999934644,0.00370289
0.962999934644,0.00376319
0.963999934644,0.00383354
0.964999934644,0.0039441
0.965999934644,0.00399435
0.966999934644,0.00411495
0.967999934644,0.00417525
0.968999934644,0.00417525
0.969999934644,0.0042255
0.970999934644,0.0042255
0.971999934644,0.00413505
0.972999934644,0.00411495
0.973999934644,0.00403455
0.974999934644,0.00397425
0.975999934644,0.00388379
0.976999934644,0.00377324
0.977999934644,0.00371294
0.978999934644,0.00370289
0.979999934644,0.00364259
0.980999934644,0.00361244
0.981999934644,0.00370289
0.982999934644,0.00371294
0.983999934644,0.00383354
0.984999934644,0.00393405
0.985999934644,0.00401445
0.986999934644,0.0041049
0.987999934644,0.00417525
0.988999934644,0.00419535
0.989999934644,0.0042456
0.990999934644,0.0042054
0.991999934644,0.00417525
0.992999934644,0.00411495
0.993999934644,0.00403455
0.994999934644,0.00389384
0.995999934644,0.00381344
0.996999934644,0.00371294
0.997999934644,0.00363254
0.998999934644,0.00361244
