-1.00000006536,0.00494987
-0.999000065356,0.00490967
-0.998000065356,0.00482927
-0.997000065356,0.00476897
-0.996000065356,0.00476897
-0.995000065356,0.00476897
-0.994000065356,0.00480917
-0.993000065356,0.00483932
-0.992000065356,0.00489962
-0.991000065356,0.00493982
-0.990000065356,0.00499008
-0.989000065356,0.00505038
-0.988000065356,0.00514083
-0.987000065356,0.00513078
-0.986000065356,0.00520113
-0.985000065356,0.00518103
-0.984000065356,0.00518103
-0.983000065356,0.00510063
-0.982000065356,0.00507048
-0.981000065356,0.00499008
-0.980000065356,0.00495993
-0.979000065356,0.00488957
-0.978000065356,0.00482927
-0.977000065356,0.00481922
-0.976000065356,0.00480917
-0.975000065356,0.00477902
-0.974000065356,0.00477902
-0.973000065356,0.00480917
-0.972000065356,0.00484937
-0.971000065356,0.00495993
-0.970000065356,0.00496997
-0.969000065356,0.00503028
-0.968000065356,0.00513078
-0.967000065356,0.00519108
-0.966000065356,0.00516093
-0.965000065356,0.00520113
-0.964000065356,0.00516093
-0.963000065356,0.00513078
-0.962000065356,0.00511068
-0.961000065356,0.00501018
-0.960000065356,0.00491972
-0.959000065356,0.00487952
-0.958000065356,0.00478907
-0.957000065356,0.00475892
-0.956000065356,0.00474887
-0.955000065356,0.00475892
-0.954000065356,0.00478907
-0.953000065356,0.00484937
-0.952000065356,0.00487952
-0.951000065356,0.00489962
-0.950000065356,0.00496997
-0.949000065356,0.00503028
-0.948000065356,0.00511068
-0.947000065356,0.00511068
-0.946000065356,0.00516093
-0.945000065356,0.00515088
-0.944000065356,0.00516093
-0.943000065356,0.00513078
-0.942000065356,0.00509058
-0.941000065356,0.00499008
-0.940000065356,0.00492977
-0.939000065356,0.00487952
-0.938000065356,0.00479912
-0.937000065356,0.00475892
-0.936000065356,0.00472877
-0.935000065356,0.00471872
-0.934000065356,0.00474887
-0.933000065356,0.00473882
-0.932000065356,0.00477902
-0.931000065356,0.00480917
-0.930000065356,0.00485942
-0.929000065356,0.00491972
-0.928000065356,0.00499008
-0.927000065356,0.00502023
-0.926000065356,0.00503028
-0.925000065356,0.00504033
-0.924000065356,0.00500013
-0.923000065356,0.00496997
-0.922000065356,0.00490967
-0.921000065356,0.00485942
-0.920000065356,0.00480917
-0.919000065356,0.00475892
-0.918000065356,0.00467852
-0.917000065356,0.00472877
-0.916000065356,0.00478907
-0.915000065356,0.00482927
-0.914000065356,0.00486947
-0.913000065356,0.00495993
-0.912000065356,0.00503028
-0.911000065356,0.00512073
-0.910000065356,0.00521118
-0.909000065356,0.00532173
-0.908000065356,0.00541219
-0.907000065356,0.00552274
-0.906000065356,0.00560314
-0.905000065356,0.00566344
-0.904000065356,0.00575389
-0.903000065356,0.0057941
-0.902000065356,0.0058343
-0.901000065356,0.0058142
-0.900000065356,0.0058544
-0.899000065356,0.00575389
-0.898000065356,0.00570364
-0.897000065356,0.00568354
-0.896000065356,0.00554284
-0.895000065356,0.00533178
-0.894000065356,0.00523128
-0.893000065356,0.00516093
-0.892000065356,0.00510063
-0.891000065356,0.00509058
-0.890000065356,0.00511068
-0.889000065356,0.00508053
-0.888000065356,0.00512073
-0.887000065356,0.00511068
-0.886000065356,0.00508053
-0.885000065356,0.00508053
-0.884000065356,0.00501018
-0.883000065356,0.00496997
-0.882000065356,0.00491972
-0.881000065356,0.00484937
-0.880000065356,0.00476897
-0.879000065356,0.00468857
-0.878000065356,0.00456796
-0.877000065356,0.00458807
-0.876000065356,0.00454786
-0.875000065356,0.00451771
-0.874000065356,0.00453781
-0.873000065356,0.00462827
-0.872000065356,0.00463832
-0.871000065356,0.00467852
-0.870000065356,0.00474887
-0.869000065356,0.00477902
-0.868000065356,0.00490967
-0.867000065356,0.00494987
-0.866000065356,0.00501018
-0.865000065356,0.00505038
-0.864000065356,0.00505038
-0.863000065356,0.00501018
-0.862000065356,0.00500013
-0.861000065356,0.00494987
-0.860000065356,0.00492977
-0.859000065356,0.00483932
-0.858000065356,0.00478907
-0.857000065356,0.00476897
-0.856000065356,0.00472877
-0.855000065356,0.00468857
-0.854000065356,0.00473882
-0.853000065356,0.00477902
-0.852000065356,0.00482927
-0.851000065356,0.00489962
-0.850000065356,0.00498003
-0.849000065356,0.00501018
-0.848000065356,0.00512073
-0.847000065356,0.00514083
-0.846000065356,0.00518103
-0.845000065356,0.00519108
-0.844000065356,0.00518103
-0.843000065356,0.00514083
-0.842000065356,0.00510063
-0.841000065356,0.00506043
-0.840000065356,0.00498003
-0.839000065356,0.00494987
-0.838000065356,0.00488957
-0.837000065356,0.00483932
-0.836000065356,0.00482927
-0.835000065356,0.00482927
-0.834000065356,0.00480917
-0.833000065356,0.00482927
-0.832000065356,0.00487952
-0.831000065356,0.00495993
-0.830000065356,0.00498003
-0.829000065356,0.00506043
-0.828000065356,0.00515088
-0.827000065356,0.00519108
-0.826000065356,0.00522123
-0.825000065356,0.00522123
-0.824000065356,0.00520113
-0.823000065356,0.00519108
-0.822000065356,0.00518103
-0.821000065356,0.00511068
-0.820000065356,0.00503028
-0.819000065356,0.00499008
-0.818000065356,0.00488957
-0.817000065356,0.00485942
-0.816000065356,0.00483932
-0.815000065356,0.00479912
-0.814000065356,0.00486947
-0.813000065356,0.00492977
-0.812000065356,0.00494987
-0.811000065356,0.00499008
-0.810000065356,0.00507048
-0.809000065356,0.00513078
-0.808000065356,0.00523128
-0.807000065356,0.00524133
-0.806000065356,0.00525138
-0.805000065356,0.00531168
-0.804000065356,0.00529158
-0.803000065356,0.00522123
-0.802000065356,0.00520113
-0.801000065356,0.00513078
-0.800000065356,0.00508053
-0.799000065356,0.00504033
-0.798000065356,0.00496997
-0.797000065356,0.00492977
-0.796000065356,0.00493982
-0.795000065356,0.00491972
-0.794000065356,0.00492977
-0.793000065356,0.00495993
-0.792000065356,0.00495993
-0.791000065356,0.00505038
-0.790000065356,0.00512073
-0.789000065356,0.00519108
-0.788000065356,0.00523128
-0.787000065356,0.00526143
-0.786000065356,0.00530163
-0.785000065356,0.00535188
-0.784000065356,0.00532173
-0.783000065356,0.00530163
-0.782000065356,0.00526143
-0.781000065356,0.00521118
-0.780000065356,0.00513078
-0.779000065356,0.00507048
-0.778000065356,0.00504033
-0.777000065356,0.00500013
-0.776000065356,0.00498003
-0.775000065356,0.00496997
-0.774000065356,0.00502023
-0.773000065356,0.00506043
-0.772000065356,0.00513078
-0.771000065356,0.00517098
-0.770000065356,0.00526143
-0.769000065356,0.00532173
-0.768000065356,0.00535188
-0.767000065356,0.00539209
-0.766000065356,0.00541219
-0.765000065356,0.00548254
-0.764000065356,0.00543229
-0.763000065356,0.00538204
-0.762000065356,0.00539209
-0.761000065356,0.00536194
-0.760000065356,0.00524133
-0.759000065356,0.00520113
-0.758000065356,0.00516093
-0.757000065356,0.00514083
-0.756000065356,0.00511068
-0.755000065356,0.00510063
-0.754000065356,0.00509058
-0.753000065356,0.00516093
-0.752000065356,0.00518103
-0.751000065356,0.00528153
-0.750000065356,0.00534183
-0.749000065356,0.00539209
-0.748000065356,0.00547249
-0.747000065356,0.00556294
-0.746000065356,0.00560314
-0.745000065356,0.00561319
-0.744000065356,0.00562324
-0.743000065356,0.00560314
-0.742000065356,0.00555289
-0.741000065356,0.00549259
-0.740000065356,0.00544234
-0.739000065356,0.00541219
-0.738000065356,0.00534183
-0.737000065356,0.00530163
-0.736000065356,0.00529158
-0.735000065356,0.00527148
-0.734000065356,0.00526143
-0.733000065356,0.00527148
-0.732000065356,0.00533178
-0.731000065356,0.00542224
-0.730000065356,0.00547249
-0.729000065356,0.00554284
-0.728000065356,0.00563329
-0.727000065356,0.00566344
-0.726000065356,0.00572374
-0.725000065356,0.00573379
-0.724000065356,0.00574384
-0.723000065356,0.00567349
-0.722000065356,0.00563329
-0.721000065356,0.00556294
-0.720000065356,0.00551269
-0.719000065356,0.00544234
-0.718000065356,0.00539209
-0.717000065356,0.00534183
-0.716000065356,0.00534183
-0.715000065356,0.00533178
-0.714000065356,0.00536194
-0.713000065356,0.00540214
-0.712000065356,0.00543229
-0.711000065356,0.00548254
-0.710000065356,0.00554284
-0.709000065356,0.00560314
-0.708000065356,0.00571369
-0.707000065356,0.00575389
-0.706000065356,0.00574384
-0.705000065356,0.005774
-0.704000065356,0.00575389
-0.703000065356,0.00570364
-0.702000065356,0.00565339
-0.701000065356,0.00559309
-0.700000065356,0.00554284
-0.699000065356,0.00548254
-0.698000065356,0.00540214
-0.697000065356,0.00536194
-0.696000065356,0.00531168
-0.695000065356,0.00529158
-0.694000065356,0.00528153
-0.693000065356,0.00534183
-0.692000065356,0.00539209
-0.691000065356,0.00543229
-0.690000065356,0.00547249
-0.689000065356,0.00551269
-0.688000065356,0.00558304
-0.687000065356,0.00563329
-0.686000065356,0.00567349
-0.685000065356,0.00569359
-0.684000065356,0.00565339
-0.683000065356,0.00563329
-0.682000065356,0.00559309
-0.681000065356,0.00549259
-0.680000065356,0.00543229
-0.679000065356,0.00539209
-0.678000065356,0.00532173
-0.677000065356,0.00528153
-0.676000065356,0.00523128
-0.675000065356,0.00521118
-0.674000065356,0.00523128
-0.673000065356,0.00528153
-0.672000065356,0.00531168
-0.671000065356,0.00535188
-0.670000065356,0.00538204
-0.669000065356,0.00545239
-0.668000065356,0.00550264
-0.667000065356,0.00555289
-0.666000065356,0.00554284
-0.665000065356,0.00558304
-0.664000065356,0.00558304
-0.663000065356,0.00555289
-0.662000065356,0.00546244
-0.661000065356,0.00545239
-0.660000065356,0.00535188
-0.659000065356,0.00532173
-0.658000065356,0.00524133
-0.657000065356,0.00519108
-0.656000065356,0.00515088
-0.655000065356,0.00516093
-0.654000065356,0.00511068
-0.653000065356,0.00521118
-0.652000065356,0.00527148
-0.651000065356,0.00529158
-0.650000065356,0.00535188
-0.649000065356,0.00542224
-0.648000065356,0.00550264
-0.647000065356,0.00552274
-0.646000065356,0.00553279
-0.645000065356,0.00556294
-0.644000065356,0.00557299
-0.643000065356,0.00550264
-0.642000065356,0.00549259
-0.641000065356,0.00542224
-0.640000065356,0.00536194
-0.639000065356,0.00529158
-0.638000065356,0.00524133
-0.637000065356,0.00517098
-0.636000065356,0.00515088
-0.635000065356,0.00512073
-0.634000065356,0.00513078
-0.633000065356,0.00518103
-0.632000065356,0.00523128
-0.631000065356,0.00529158
-0.630000065356,0.00533178
-0.629000065356,0.00538204
-0.628000065356,0.00546244
-0.627000065356,0.00552274
-0.626000065356,0.00550264
-0.625000065356,0.00554284
-0.624000065356,0.00555289
-0.623000065356,0.00549259
-0.622000065356,0.00548254
-0.621000065356,0.00541219
-0.620000065356,0.00536194
-0.619000065356,0.00531168
-0.618000065356,0.00524133
-0.617000065356,0.00520113
-0.616000065356,0.00517098
-0.615000065356,0.00514083
-0.614000065356,0.00515088
-0.613000065356,0.00519108
-0.612000065356,0.00520113
-0.611000065356,0.00526143
-0.610000065356,0.00531168
-0.609000065356,0.00536194
-0.608000065356,0.00545239
-0.607000065356,0.00549259
-0.606000065356,0.00550264
-0.605000065356,0.00556294
-0.604000065356,0.00557299
-0.603000065356,0.00550264
-0.602000065356,0.00547249
-0.601000065356,0.00541219
-0.600000065356,0.00538204
-0.599000065356,0.00531168
-0.598000065356,0.00522123
-0.597000065356,0.00516093
-0.596000065356,0.00520113
-0.595000065356,0.00514083
-0.594000065356,0.00515088
-0.593000065356,0.00515088
-0.592000065356,0.00524133
-0.591000065356,0.00530163
-0.590000065356,0.00536194
-0.589000065356,0.00539209
-0.588000065356,0.00548254
-0.587000065356,0.00554284
-0.586000065356,0.00554284
-0.585000065356,0.00557299
-0.584000065356,0.00555289
-0.583000065356,0.00549259
-0.582000065356,0.00547249
-0.581000065356,0.00541219
-0.580000065356,0.00537199
-0.579000065356,0.00532173
-0.578000065356,0.00524133
-0.577000065356,0.00518103
-0.576000065356,0.00517098
-0.575000065356,0.00516093
-0.574000065356,0.00514083
-0.573000065356,0.00521118
-0.572000065356,0.00522123
-0.571000065356,0.00532173
-0.570000065356,0.00538204
-0.569000065356,0.00545239
-0.568000065356,0.00550264
-0.567000065356,0.00553279
-0.566000065356,0.00555289
-0.565000065356,0.00558304
-0.564000065356,0.00558304
-0.563000065356,0.00555289
-0.562000065356,0.00551269
-0.561000065356,0.00545239
-0.560000065356,0.00539209
-0.559000065356,0.00532173
-0.558000065356,0.00524133
-0.557000065356,0.00517098
-0.556000065356,0.00519108
-0.555000065356,0.00514083
-0.554000065356,0.00517098
-0.553000065356,0.00520113
-0.552000065356,0.00523128
-0.551000065356,0.00529158
-0.550000065356,0.00536194
-0.549000065356,0.00539209
-0.548000065356,0.00547249
-0.547000065356,0.00550264
-0.546000065356,0.00554284
-0.545000065356,0.00556294
-0.544000065356,0.00555289
-0.543000065356,0.00550264
-0.542000065356,0.00543229
-0.541000065356,0.00541219
-0.540000065356,0.00533178
-0.539000065356,0.00531168
-0.538000065356,0.00519108
-0.537000065356,0.00511068
-0.536000065356,0.00510063
-0.535000065356,0.00508053
-0.534000065356,0.00506043
-0.533000065356,0.00513078
-0.532000065356,0.00514083
-0.531000065356,0.00519108
-0.530000065356,0.00526143
-0.529000065356,0.00532173
-0.528000065356,0.00541219
-0.527000065356,0.00547249
-0.526000065356,0.00546244
-0.525000065356,0.00544234
-0.524000065356,0.00544234
-0.523000065356,0.00543229
-0.522000065356,0.00544234
-0.521000065356,0.00536194
-0.520000065356,0.00525138
-0.519000065356,0.00521118
-0.518000065356,0.00516093
-0.517000065356,0.00512073
-0.516000065356,0.00513078
-0.515000065356,0.00505038
-0.514000065356,0.00507048
-0.513000065356,0.00508053
-0.512000065356,0.00515088
-0.511000065356,0.00517098
-0.510000065356,0.00531168
-0.509000065356,0.00535188
-0.508000065356,0.00538204
-0.507000065356,0.00545239
-0.506000065356,0.00546244
-0.505000065356,0.00545239
-0.504000065356,0.00545239
-0.503000065356,0.00543229
-0.502000065356,0.00541219
-0.501000065356,0.00537199
-0.500000065356,0.00531168
-0.499000065356,0.00524133
-0.498000065356,0.00517098
-0.497000065356,0.00510063
-0.496000065356,0.00510063
-0.495000065356,0.00508053
-0.494000065356,0.00507048
-0.493000065356,0.00511068
-0.492000065356,0.00516093
-0.491000065356,0.00522123
-0.490000065356,0.00530163
-0.489000065356,0.00534183
-0.488000065356,0.00538204
-0.487000065356,0.00548254
-0.486000065356,0.00545239
-0.485000065356,0.00549259
-0.484000065356,0.00549259
-0.483000065356,0.00547249
-0.482000065356,0.00542224
-0.481000065356,0.00535188
-0.480000065356,0.00531168
-0.479000065356,0.00525138
-0.478000065356,0.00517098
-0.477000065356,0.00509058
-0.476000065356,0.00509058
-0.475000065356,0.00508053
-0.474000065356,0.00508053
-0.473000065356,0.00511068
-0.472000065356,0.00516093
-0.471000065356,0.00521118
-0.470000065356,0.00528153
-0.469000065356,0.00531168
-0.468000065356,0.00540214
-0.467000065356,0.00542224
-0.466000065356,0.00547249
-0.465000065356,0.00550264
-0.464000065356,0.00551269
-0.463000065356,0.00548254
-0.462000065356,0.00545239
-0.461000065356,0.00538204
-0.460000065356,0.00532173
-0.459000065356,0.00524133
-0.458000065356,0.00519108
-0.457000065356,0.00511068
-0.456000065356,0.00508053
-0.455000065356,0.00507048
-0.454000065356,0.00508053
-0.453000065356,0.00513078
-0.452000065356,0.00515088
-0.451000065356,0.00518103
-0.450000065356,0.00525138
-0.449000065356,0.00530163
-0.448000065356,0.00529158
-0.447000065356,0.00535188
-0.446000065356,0.00533178
-0.445000065356,0.00539209
-0.444000065356,0.00537199
-0.443000065356,0.00535188
-0.442000065356,0.00532173
-0.441000065356,0.00525138
-0.440000065356,0.00520113
-0.439000065356,0.00518103
-0.438000065356,0.00507048
-0.437000065356,0.00507048
-0.436000065356,0.00508053
-0.435000065356,0.00507048
-0.434000065356,0.00510063
-0.433000065356,0.00520113
-0.432000065356,0.00526143
-0.431000065356,0.00536194
-0.430000065356,0.00544234
-0.429000065356,0.00554284
-0.428000065356,0.00566344
-0.427000065356,0.005774
-0.426000065356,0.0058343
-0.425000065356,0.0059147
-0.424000065356,0.005975
-0.423000065356,0.00600515
-0.422000065356,0.00606545
-0.421000065356,0.00608555
-0.420000065356,0.00614585
-0.419000065356,0.0061358
-0.418000065356,0.0061157
-0.417000065356,0.00608555
-0.416000065356,0.00606545
-0.415000065356,0.00606545
-0.414000065356,0.00600515
-0.413000065356,0.0058946
-0.412000065356,0.005774
-0.411000065356,0.00565339
-0.410000065356,0.00560314
-0.409000065356,0.00555289
-0.408000065356,0.00551269
-0.407000065356,0.00551269
-0.406000065356,0.00543229
-0.405000065356,0.00547249
-0.404000065356,0.00548254
-0.403000065356,0.00543229
-0.402000065356,0.00535188
-0.401000065356,0.00532173
-0.400000065356,0.00522123
-0.399000065356,0.00518103
-0.398000065356,0.00510063
-0.397000065356,0.00503028
-0.396000065356,0.00502023
-0.395000065356,0.00500013
-0.394000065356,0.00494987
-0.393000065356,0.00496997
-0.392000065356,0.00500013
-0.391000065356,0.00505038
-0.390000065356,0.00510063
-0.389000065356,0.00515088
-0.388000065356,0.00523128
-0.387000065356,0.00529158
-0.386000065356,0.00530163
-0.385000065356,0.00534183
-0.384000065356,0.00539209
-0.383000065356,0.00535188
-0.382000065356,0.00535188
-0.381000065356,0.00530163
-0.380000065356,0.00527148
-0.379000065356,0.00524133
-0.378000065356,0.00519108
-0.377000065356,0.00511068
-0.376000065356,0.00511068
-0.375000065356,0.00509058
-0.374000065356,0.00509058
-0.373000065356,0.00511068
-0.372000065356,0.00514083
-0.371000065356,0.00519108
-0.370000065356,0.00527148
-0.369000065356,0.00534183
-0.368000065356,0.00543229
-0.367000065356,0.00550264
-0.366000065356,0.00549259
-0.365000065356,0.00551269
-0.364000065356,0.00553279
-0.363000065356,0.00550264
-0.362000065356,0.00548254
-0.361000065356,0.00544234
-0.360000065356,0.00534183
-0.359000065356,0.00528153
-0.358000065356,0.00523128
-0.357000065356,0.00517098
-0.356000065356,0.00515088
-0.355000065356,0.00513078
-0.354000065356,0.00511068
-0.353000065356,0.00517098
-0.352000065356,0.00518103
-0.351000065356,0.00524133
-0.350000065356,0.00528153
-0.349000065356,0.00537199
-0.348000065356,0.00546244
-0.347000065356,0.00551269
-0.346000065356,0.00549259
-0.345000065356,0.00551269
-0.344000065356,0.00553279
-0.343000065356,0.00554284
-0.342000065356,0.00551269
-0.341000065356,0.00544234
-0.340000065356,0.00540214
-0.339000065356,0.00533178
-0.338000065356,0.00526143
-0.337000065356,0.00518103
-0.336000065356,0.00518103
-0.335000065356,0.00517098
-0.334000065356,0.00520113
-0.333000065356,0.00521118
-0.332000065356,0.00526143
-0.331000065356,0.00531168
-0.330000065356,0.00539209
-0.329000065356,0.00544234
-0.328000065356,0.00551269
-0.327000065356,0.00556294
-0.326000065356,0.00557299
-0.325000065356,0.00560314
-0.324000065356,0.00560314
-0.323000065356,0.00556294
-0.322000065356,0.00553279
-0.321000065356,0.00547249
-0.320000065356,0.00541219
-0.319000065356,0.00536194
-0.318000065356,0.00527148
-0.317000065356,0.00522123
-0.316000065356,0.00522123
-0.315000065356,0.00520113
-0.314000065356,0.00518103
-0.313000065356,0.00522123
-0.312000065356,0.00527148
-0.311000065356,0.00534183
-0.310000065356,0.00536194
-0.309000065356,0.00543229
-0.308000065356,0.00549259
-0.307000065356,0.00558304
-0.306000065356,0.00559309
-0.305000065356,0.00561319
-0.304000065356,0.00561319
-0.303000065356,0.00559309
-0.302000065356,0.00557299
-0.301000065356,0.00551269
-0.300000065356,0.00544234
-0.299000065356,0.00538204
-0.298000065356,0.00533178
-0.297000065356,0.00524133
-0.296000065356,0.00524133
-0.295000065356,0.00521118
-0.294000065356,0.00523128
-0.293000065356,0.00527148
-0.292000065356,0.00533178
-0.291000065356,0.00534183
-0.290000065356,0.00543229
-0.289000065356,0.00546244
-0.288000065356,0.00555289
-0.287000065356,0.00563329
-0.286000065356,0.00566344
-0.285000065356,0.00568354
-0.284000065356,0.00573379
-0.283000065356,0.00570364
-0.282000065356,0.00567349
-0.281000065356,0.00561319
-0.280000065356,0.00555289
-0.279000065356,0.00553279
-0.278000065356,0.00543229
-0.277000065356,0.00536194
-0.276000065356,0.00535188
-0.275000065356,0.00534183
-0.274000065356,0.00533178
-0.273000065356,0.00539209
-0.272000065356,0.00545239
-0.271000065356,0.00551269
-0.270000065356,0.00558304
-0.269000065356,0.00565339
-0.268000065356,0.00567349
-0.267000065356,0.00575389
-0.266000065356,0.0057941
-0.265000065356,0.00582425
-0.264000065356,0.00584435
-0.263000065356,0.00582425
-0.262000065356,0.00580415
-0.261000065356,0.00574384
-0.260000065356,0.00570364
-0.259000065356,0.00563329
-0.258000065356,0.00556294
-0.257000065356,0.00549259
-0.256000065356,0.00550264
-0.255000065356,0.00545239
-0.254000065356,0.00546244
-0.253000065356,0.00554284
-0.252000065356,0.00559309
-0.251000065356,0.00556294
-0.250000065356,0.00565339
-0.249000065356,0.00572374
-0.248000065356,0.00582425
-0.247000065356,0.0058946
-0.246000065356,0.0058946
-0.245000065356,0.0059147
-0.244000065356,0.0059549
-0.243000065356,0.00588455
-0.242000065356,0.00588455
-0.241000065356,0.0058544
-0.240000065356,0.00576395
-0.239000065356,0.00572374
-0.238000065356,0.00567349
-0.237000065356,0.00561319
-0.236000065356,0.00556294
-0.235000065356,0.00555289
-0.234000065356,0.00553279
-0.233000065356,0.00554284
-0.232000065356,0.00559309
-0.231000065356,0.00565339
-0.230000065356,0.00571369
-0.229000065356,0.00578405
-0.228000065356,0.00582425
-0.227000065356,0.0059147
-0.226000065356,0.00590465
-0.225000065356,0.0059549
-0.224000065356,0.00596495
-0.223000065356,0.0059147
-0.222000065356,0.00586445
-0.221000065356,0.00584435
-0.220000065356,0.00574384
-0.219000065356,0.00567349
-0.218000065356,0.00561319
-0.217000065356,0.00553279
-0.216000065356,0.00553279
-0.215000065356,0.00551269
-0.214000065356,0.00550264
-0.213000065356,0.00553279
-0.212000065356,0.00556294
-0.211000065356,0.00557299
-0.210000065356,0.00567349
-0.209000065356,0.00572374
-0.208000065356,0.00578405
-0.207000065356,0.00586445
-0.206000065356,0.0059147
-0.205000065356,0.00588455
-0.204000065356,0.00590465
-0.203000065356,0.0058544
-0.202000065356,0.00580415
-0.201000065356,0.00578405
-0.200000065356,0.00568354
-0.199000065356,0.00563329
-0.198000065356,0.00558304
-0.197000065356,0.00549259
-0.196000065356,0.00547249
-0.195000065356,0.00547249
-0.194000065356,0.00542224
-0.193000065356,0.00546244
-0.192000065356,0.00549259
-0.191000065356,0.00549259
-0.190000065356,0.00555289
-0.189000065356,0.00564334
-0.188000065356,0.00569359
-0.187000065356,0.00580415
-0.186000065356,0.00580415
-0.185000065356,0.0057941
-0.184000065356,0.0057941
-0.183000065356,0.00580415
-0.182000065356,0.00574384
-0.181000065356,0.00570364
-0.180000065356,0.00564334
-0.179000065356,0.00560314
-0.178000065356,0.00551269
-0.177000065356,0.00546244
-0.176000065356,0.00543229
-0.175000065356,0.00544234
-0.174000065356,0.00541219
-0.173000065356,0.00544234
-0.172000065356,0.00548254
-0.171000065356,0.00550264
-0.170000065356,0.00556294
-0.169000065356,0.00561319
-0.168000065356,0.00568354
-0.167000065356,0.00575389
-0.166000065356,0.005774
-0.165000065356,0.0058142
-0.164000065356,0.0058544
-0.163000065356,0.0057941
-0.162000065356,0.00574384
-0.161000065356,0.00569359
-0.160000065356,0.00562324
-0.159000065356,0.00554284
-0.158000065356,0.00555289
-0.157000065356,0.00549259
-0.156000065356,0.00543229
-0.155000065356,0.00539209
-0.154000065356,0.00539209
-0.153000065356,0.00543229
-0.152000065356,0.00546244
-0.151000065356,0.00550264
-0.150000065356,0.00559309
-0.149000065356,0.00564334
-0.148000065356,0.00568354
-0.147000065356,0.005774
-0.146000065356,0.00578405
-0.145000065356,0.00582425
-0.144000065356,0.0058343
-0.143000065356,0.0058142
-0.142000065356,0.00576395
-0.141000065356,0.00573379
-0.140000065356,0.00564334
-0.139000065356,0.00562324
-0.138000065356,0.00554284
-0.137000065356,0.00550264
-0.136000065356,0.00545239
-0.135000065356,0.00545239
-0.134000065356,0.00543229
-0.133000065356,0.00545239
-0.132000065356,0.00550264
-0.131000065356,0.00553279
-0.130000065356,0.00563329
-0.129000065356,0.00568354
-0.128000065356,0.00572374
-0.127000065356,0.0057941
-0.126000065356,0.00584435
-0.125000065356,0.00584435
-0.124000065356,0.00588455
-0.123000065356,0.0058544
-0.122000065356,0.0058343
-0.121000065356,0.00578405
-0.120000065356,0.00575389
-0.119000065356,0.00566344
-0.118000065356,0.00559309
-0.117000065356,0.00552274
-0.116000065356,0.00550264
-0.115000065356,0.00547249
-0.114000065356,0.00547249
-0.113000065356,0.00550264
-0.112000065356,0.00551269
-0.111000065356,0.00557299
-0.110000065356,0.00564334
-0.109000065356,0.00571369
-0.108000065356,0.00576395
-0.107000065356,0.0058343
-0.106000065356,0.00582425
-0.105000065356,0.0058745
-0.104000065356,0.00588455
-0.103000065356,0.0058544
-0.102000065356,0.0058142
-0.101000065356,0.005774
-0.100000065356,0.00569359
-0.0990000653556,0.00563329
-0.0980000653556,0.00556294
-0.0970000653556,0.00556294
-0.0960000653556,0.00551269
-0.0950000653556,0.00548254
-0.0940000653556,0.00543229
-0.0930000653556,0.00551269
-0.0920000653556,0.00554284
-0.0910000653556,0.00556294
-0.0900000653556,0.00566344
-0.0890000653556,0.00573379
-0.0880000653556,0.00578405
-0.0870000653556,0.0058343
-0.0860000653556,0.0058946
-0.0850000653556,0.0058946
-0.0840000653556,0.0059147
-0.0830000653556,0.00582425
-0.0820000653556,0.0058142
-0.0810000653556,0.0057941
-0.0800000653556,0.00573379
-0.0790000653556,0.00567349
-0.0780000653556,0.00562324
-0.0770000653556,0.00553279
-0.0760000653556,0.00548254
-0.0750000653556,0.00548254
-0.0740000653556,0.00544234
-0.0730000653556,0.00544234
-0.0720000653556,0.00547249
-0.0710000653556,0.00553279
-0.0700000653556,0.00559309
-0.0690000653556,0.00563329
-0.0680000653556,0.00568354
-0.0670000653556,0.00574384
-0.0660000653556,0.0057941
-0.0650000653556,0.00582425
-0.0640000653556,0.00582425
-0.0630000653556,0.00580415
-0.0620000653556,0.00576395
-0.0610000653556,0.00571369
-0.0600000653556,0.00562324
-0.0590000653556,0.00558304
-0.0580000653556,0.00551269
-0.0570000653556,0.00542224
-0.0560000653556,0.00540214
-0.0550000653556,0.00537199
-0.0540000653556,0.00534183
-0.0530000653556,0.00535188
-0.0520000653556,0.00542224
-0.0510000653556,0.00548254
-0.0500000653556,0.00551269
-0.0490000653556,0.00558304
-0.0480000653556,0.00563329
-0.0470000653556,0.00572374
-0.0460000653556,0.00573379
-0.0450000653556,0.00573379
-0.0440000653556,0.00574384
-0.0430000653556,0.00573379
-0.0420000653556,0.00569359
-0.0410000653556,0.00563329
-0.0400000653556,0.00558304
-0.0390000653556,0.00552274
-0.0380000653556,0.00547249
-0.0370000653556,0.00540214
-0.0360000653556,0.00538204
-0.0350000653556,0.00533178
-0.0340000653556,0.00531168
-0.0330000653556,0.00534183
-0.0320000653556,0.00537199
-0.0310000653556,0.00539209
-0.0300000653556,0.00546244
-0.0290000653556,0.00553279
-0.0280000653556,0.00559309
-0.0270000653556,0.00567349
-0.0260000653556,0.00570364
-0.0250000653556,0.00572374
-0.0240000653556,0.00574384
-0.0230000653556,0.00571369
-0.0220000653556,0.00568354
-0.0210000653556,0.00564334
-0.0200000653556,0.00556294
-0.0190000653556,0.00550264
-0.0180000653556,0.00542224
-0.0170000653556,0.00536194
-0.0160000653556,0.00531168
-0.0150000653556,0.00529158
-0.0140000653556,0.00526143
-0.0130000653556,0.00531168
-0.0120000653556,0.00532173
-0.0110000653556,0.00537199
-0.0100000653556,0.00543229
-0.00900006535562,0.00551269
-0.00800006535562,0.00556294
-0.00700006535562,0.00563329
-0.00600006535562,0.00565339
-0.00500006535562,0.00568354
-0.00400006535562,0.00572374
-0.00300006535562,0.00568354
-0.00200006535562,0.00565339
-0.00100006535562,0.00562324
-6.53556249119e-008,0.00557299
0.000999934644375,0.00549259
0.00199993464438,0.00543229
0.00299993464438,0.00538204
0.00399993464438,0.00534183
0.00499993464438,0.00531168
0.00599993464438,0.00527148
0.00699993464438,0.00529158
0.00799993464438,0.00532173
0.00899993464438,0.00534183
0.00999993464438,0.00544234
0.0109999346444,0.00548254
0.0119999346444,0.00557299
0.0129999346444,0.00566344
0.0139999346444,0.00565339
0.0149999346444,0.00567349
0.0159999346444,0.00569359
0.0169999346444,0.00567349
0.0179999346444,0.00561319
0.0189999346444,0.00555289
0.0199999346444,0.00552274
0.0209999346444,0.00548254
0.0219999346444,0.00539209
0.0229999346444,0.00532173
0.0239999346444,0.00528153
0.0249999346444,0.00526143
0.0259999346444,0.00523128
0.0269999346444,0.00525138
0.0279999346444,0.00525138
0.0289999346444,0.00530163
0.0299999346444,0.00534183
0.0309999346444,0.00537199
0.0319999346444,0.00540214
0.0329999346444,0.00547249
0.0339999346444,0.00547249
0.0349999346444,0.00552274
0.0359999346444,0.00552274
0.0369999346444,0.00550264
0.0379999346444,0.00546244
0.0389999346444,0.00542224
0.0399999346444,0.00536194
0.0409999346444,0.00530163
0.0419999346444,0.00526143
0.0429999346444,0.00523128
0.0439999346444,0.00519108
0.0449999346444,0.00518103
0.0459999346444,0.00518103
0.0469999346444,0.00524133
0.0479999346444,0.00536194
0.0489999346444,0.00540214
0.0499999346444,0.00548254
0.0509999346444,0.00556294
0.0519999346444,0.00564334
0.0529999346444,0.005774
0.0539999346444,0.00594485
0.0549999346444,0.00602525
0.0559999346444,0.0061559
0.0569999346444,0.00623631
0.0579999346444,0.00631671
0.0589999346444,0.00638706
0.0599999346444,0.00639711
0.0609999346444,0.00640716
0.0619999346444,0.00635691
0.0629999346444,0.00635691
0.0639999346444,0.00633681
0.0649999346444,0.00642726
0.0659999346444,0.00642726
0.0669999346444,0.00644736
0.0679999346444,0.00636696
0.0689999346444,0.00627651
0.0699999346444,0.00622626
0.0709999346444,0.0061559
0.0719999346444,0.00608555
0.0729999346444,0.00608555
0.0739999346444,0.00598505
0.0749999346444,0.0059147
0.0759999346444,0.00580415
0.0769999346444,0.00571369
0.0779999346444,0.00559309
0.0789999346444,0.00551269
0.0799999346444,0.00542224
0.0809999346444,0.00535188
0.0819999346444,0.00525138
0.0829999346444,0.00517098
0.0839999346444,0.00513078
0.0849999346444,0.00511068
0.0859999346444,0.00505038
0.0869999346444,0.00505038
0.0879999346444,0.00509058
0.0889999346444,0.00513078
0.0899999346444,0.00520113
0.0909999346444,0.00532173
0.0919999346444,0.00543229
0.0929999346444,0.00553279
0.0939999346444,0.00557299
0.0949999346444,0.00556294
0.0959999346444,0.00560314
0.0969999346444,0.00558304
0.0979999346444,0.00555289
0.0989999346444,0.00549259
0.0999999346444,0.00545239
0.100999934644,0.00540214
0.101999934644,0.00533178
0.102999934644,0.00525138
0.103999934644,0.00524133
0.104999934644,0.00523128
0.105999934644,0.00520113
0.106999934644,0.00522123
0.107999934644,0.00525138
0.108999934644,0.00531168
0.109999934644,0.00538204
0.110999934644,0.00545239
0.111999934644,0.00552274
0.112999934644,0.00559309
0.113999934644,0.00562324
0.114999934644,0.00563329
0.115999934644,0.00563329
0.116999934644,0.00565339
0.117999934644,0.00563329
0.118999934644,0.00560314
0.119999934644,0.00549259
0.120999934644,0.00544234
0.121999934644,0.00537199
0.122999934644,0.00533178
0.123999934644,0.00527148
0.124999934644,0.00524133
0.125999934644,0.00522123
0.126999934644,0.00528153
0.127999934644,0.00533178
0.128999934644,0.00534183
0.129999934644,0.00537199
0.130999934644,0.00543229
0.131999934644,0.00553279
0.132999934644,0.00560314
0.133999934644,0.00563329
0.134999934644,0.00564334
0.135999934644,0.00565339
0.136999934644,0.00562324
0.137999934644,0.00559309
0.138999934644,0.00557299
0.139999934644,0.00551269
0.140999934644,0.00542224
0.141999934644,0.00541219
0.142999934644,0.00533178
0.143999934644,0.00527148
0.144999934644,0.00524133
0.145999934644,0.00524133
0.146999934644,0.00523128
0.147999934644,0.00527148
0.148999934644,0.00531168
0.149999934644,0.00536194
0.150999934644,0.00544234
0.151999934644,0.00550264
0.152999934644,0.00558304
0.153999934644,0.00561319
0.154999934644,0.00565339
0.155999934644,0.00566344
0.156999934644,0.00565339
0.157999934644,0.00559309
0.158999934644,0.00555289
0.159999934644,0.00542224
0.160999934644,0.00542224
0.161999934644,0.00535188
0.162999934644,0.00529158
0.163999934644,0.00524133
0.164999934644,0.00525138
0.165999934644,0.00528153
0.166999934644,0.00526143
0.167999934644,0.00529158
0.168999934644,0.00532173
0.169999934644,0.00537199
0.170999934644,0.00544234
0.171999934644,0.00550264
0.172999934644,0.00556294
0.173999934644,0.00563329
0.174999934644,0.00568354
0.175999934644,0.00571369
0.176999934644,0.00564334
0.177999934644,0.00565339
0.178999934644,0.00559309
0.179999934644,0.00558304
0.180999934644,0.00551269
0.181999934644,0.00543229
0.182999934644,0.00536194
0.183999934644,0.00532173
0.184999934644,0.00532173
0.185999934644,0.00524133
0.186999934644,0.00531168
0.187999934644,0.00533178
0.188999934644,0.00534183
0.189999934644,0.00540214
0.190999934644,0.00544234
0.191999934644,0.00555289
0.192999934644,0.00563329
0.193999934644,0.00567349
0.194999934644,0.00572374
0.195999934644,0.00574384
0.196999934644,0.00571369
0.197999934644,0.00564334
0.198999934644,0.00564334
0.199999934644,0.00560314
0.200999934644,0.00555289
0.201999934644,0.00546244
0.202999934644,0.00538204
0.203999934644,0.00534183
0.204999934644,0.00531168
0.205999934644,0.00531168
0.206999934644,0.00530163
0.207999934644,0.00535188
0.208999934644,0.00541219
0.209999934644,0.00544234
0.210999934644,0.00553279
0.211999934644,0.00559309
0.212999934644,0.00568354
0.213999934644,0.00570364
0.214999934644,0.00576395
0.215999934644,0.0057941
0.216999934644,0.00574384
0.217999934644,0.00574384
0.218999934644,0.00570364
0.219999934644,0.00564334
0.220999934644,0.00557299
0.221999934644,0.00555289
0.222999934644,0.00544234
0.223999934644,0.00543229
0.224999934644,0.00539209
0.225999934644,0.00542224
0.226999934644,0.00543229
0.227999934644,0.00547249
0.228999934644,0.00550264
0.229999934644,0.00555289
0.230999934644,0.00559309
0.231999934644,0.00566344
0.232999934644,0.00574384
0.233999934644,0.0057941
0.234999934644,0.0058142
0.235999934644,0.0058142
0.236999934644,0.0058142
0.237999934644,0.005774
0.238999934644,0.00571369
0.239999934644,0.00566344
0.240999934644,0.00562324
0.241999934644,0.00554284
0.242999934644,0.00548254
0.243999934644,0.00545239
0.244999934644,0.00543229
0.245999934644,0.00540214
0.246999934644,0.00539209
0.247999934644,0.00542224
0.248999934644,0.00548254
0.249999934644,0.00554284
0.250999934644,0.00560314
0.251999934644,0.00565339
0.252999934644,0.00574384
0.253999934644,0.00576395
0.254999934644,0.00576395
0.255999934644,0.00578405
0.256999934644,0.0058142
0.257999934644,0.00576395
0.258999934644,0.00573379
0.259999934644,0.00567349
0.260999934644,0.00557299
0.261999934644,0.00551269
0.262999934644,0.00547249
0.263999934644,0.00543229
0.264999934644,0.00539209
0.265999934644,0.00538204
0.266999934644,0.00537199
0.267999934644,0.00541219
0.268999934644,0.00544234
0.269999934644,0.00552274
0.270999934644,0.00555289
0.271999934644,0.00564334
0.272999934644,0.00569359
0.273999934644,0.00576395
0.274999934644,0.00575389
0.275999934644,0.0057941
0.276999934644,0.0057941
0.277999934644,0.00570364
0.278999934644,0.00566344
0.279999934644,0.00563329
0.280999934644,0.00556294
0.281999934644,0.00551269
0.282999934644,0.00543229
0.283999934644,0.00539209
0.284999934644,0.00536194
0.285999934644,0.00534183
0.286999934644,0.00532173
0.287999934644,0.00535188
0.288999934644,0.00538204
0.289999934644,0.00542224
0.290999934644,0.00550264
0.291999934644,0.00555289
0.292999934644,0.00561319
0.293999934644,0.00569359
0.294999934644,0.00568354
0.295999934644,0.00571369
0.296999934644,0.00569359
0.297999934644,0.00566344
0.298999934644,0.00564334
0.299999934644,0.00561319
0.300999934644,0.00551269
0.301999934644,0.00544234
0.302999934644,0.00535188
0.303999934644,0.00531168
0.304999934644,0.00530163
0.305999934644,0.00528153
0.306999934644,0.00528153
0.307999934644,0.00531168
0.308999934644,0.00535188
0.309999934644,0.00541219
0.310999934644,0.00547249
0.311999934644,0.00554284
0.312999934644,0.00561319
0.313999934644,0.00564334
0.314999934644,0.00561319
0.315999934644,0.00566344
0.316999934644,0.00568354
0.317999934644,0.00563329
0.318999934644,0.00558304
0.319999934644,0.00552274
0.320999934644,0.00545239
0.321999934644,0.00539209
0.322999934644,0.00534183
0.323999934644,0.00531168
0.324999934644,0.00528153
0.325999934644,0.00524133
0.326999934644,0.00526143
0.327999934644,0.00532173
0.328999934644,0.00532173
0.329999934644,0.00534183
0.330999934644,0.00544234
0.331999934644,0.00550264
0.332999934644,0.00558304
0.333999934644,0.00561319
0.334999934644,0.00564334
0.335999934644,0.00566344
0.336999934644,0.00567349
0.337999934644,0.00561319
0.338999934644,0.00558304
0.339999934644,0.00551269
0.340999934644,0.00545239
0.341999934644,0.00541219
0.342999934644,0.00534183
0.343999934644,0.00526143
0.344999934644,0.00529158
0.345999934644,0.00525138
0.346999934644,0.00523128
0.347999934644,0.00528153
0.348999934644,0.00532173
0.349999934644,0.00543229
0.350999934644,0.00548254
0.351999934644,0.00554284
0.352999934644,0.00560314
0.353999934644,0.00568354
0.354999934644,0.00567349
0.355999934644,0.00569359
0.356999934644,0.00570364
0.357999934644,0.00563329
0.358999934644,0.00559309
0.359999934644,0.00553279
0.360999934644,0.00550264
0.361999934644,0.00545239
0.362999934644,0.00541219
0.363999934644,0.00535188
0.364999934644,0.00537199
0.365999934644,0.00530163
0.366999934644,0.00533178
0.367999934644,0.00537199
0.368999934644,0.00541219
0.369999934644,0.00542224
0.370999934644,0.00548254
0.371999934644,0.00553279
0.372999934644,0.00559309
0.373999934644,0.00564334
0.374999934644,0.00565339
0.375999934644,0.00567349
0.376999934644,0.00572374
0.377999934644,0.00569359
0.378999934644,0.00563329
0.379999934644,0.00558304
0.380999934644,0.00550264
0.381999934644,0.00546244
0.382999934644,0.00541219
0.383999934644,0.00533178
0.384999934644,0.00532173
0.385999934644,0.00530163
0.386999934644,0.00530163
0.387999934644,0.00534183
0.388999934644,0.00536194
0.389999934644,0.00539209
0.390999934644,0.00545239
0.391999934644,0.00555289
0.392999934644,0.00561319
0.393999934644,0.00567349
0.394999934644,0.00565339
0.395999934644,0.00571369
0.396999934644,0.00570364
0.397999934644,0.00566344
0.398999934644,0.00560314
0.399999934644,0.00555289
0.400999934644,0.00547249
0.401999934644,0.00541219
0.402999934644,0.00534183
0.403999934644,0.00530163
0.404999934644,0.00525138
0.405999934644,0.00521118
0.406999934644,0.00522123
0.407999934644,0.00528153
0.408999934644,0.00532173
0.409999934644,0.00536194
0.410999934644,0.00543229
0.411999934644,0.00549259
0.412999934644,0.00556294
0.413999934644,0.00558304
0.414999934644,0.00563329
0.415999934644,0.00566344
0.416999934644,0.00570364
0.417999934644,0.00560314
0.418999934644,0.00556294
0.419999934644,0.00549259
0.420999934644,0.00542224
0.421999934644,0.00534183
0.422999934644,0.00526143
0.423999934644,0.00520113
0.424999934644,0.00520113
0.425999934644,0.00518103
0.426999934644,0.00517098
0.427999934644,0.00521118
0.428999934644,0.00522123
0.429999934644,0.00528153
0.430999934644,0.00534183
0.431999934644,0.00541219
0.432999934644,0.00544234
0.433999934644,0.00553279
0.434999934644,0.00549259
0.435999934644,0.00556294
0.436999934644,0.00554284
0.437999934644,0.00554284
0.438999934644,0.00549259
0.439999934644,0.00544234
0.440999934644,0.00537199
0.441999934644,0.00530163
0.442999934644,0.00521118
0.443999934644,0.00519108
0.444999934644,0.00515088
0.445999934644,0.00514083
0.446999934644,0.00513078
0.447999934644,0.00519108
0.448999934644,0.00522123
0.449999934644,0.00529158
0.450999934644,0.00535188
0.451999934644,0.00537199
0.452999934644,0.00542224
0.453999934644,0.00549259
0.454999934644,0.00553279
0.455999934644,0.00554284
0.456999934644,0.00552274
0.457999934644,0.00549259
0.458999934644,0.00548254
0.459999934644,0.00543229
0.460999934644,0.00539209
0.461999934644,0.00532173
0.462999934644,0.00525138
0.463999934644,0.00515088
0.464999934644,0.00516093
0.465999934644,0.00515088
0.466999934644,0.00511068
0.467999934644,0.00513078
0.468999934644,0.00522123
0.469999934644,0.00524133
0.470999934644,0.00533178
0.471999934644,0.00537199
0.472999934644,0.00543229
0.473999934644,0.00548254
0.474999934644,0.00548254
0.475999934644,0.00551269
0.476999934644,0.00554284
0.477999934644,0.00552274
0.478999934644,0.00547249
0.479999934644,0.00545239
0.480999934644,0.00535188
0.481999934644,0.00531168
0.482999934644,0.00522123
0.483999934644,0.00519108
0.484999934644,0.00515088
0.485999934644,0.00510063
0.486999934644,0.00510063
0.487999934644,0.00518103
0.488999934644,0.00519108
0.489999934644,0.00525138
0.490999934644,0.00531168
0.491999934644,0.00536194
0.492999934644,0.00541219
0.493999934644,0.00552274
0.494999934644,0.00552274
0.495999934644,0.00555289
0.496999934644,0.00557299
0.497999934644,0.00549259
0.498999934644,0.00546244
0.499999934644,0.00540214
0.500999934644,0.00533178
0.501999934644,0.00526143
0.502999934644,0.00520113
0.503999934644,0.00513078
0.504999934644,0.00510063
0.505999934644,0.00507048
0.506999934644,0.00509058
0.507999934644,0.00513078
0.508999934644,0.00515088
0.509999934644,0.00518103
0.510999934644,0.00522123
0.511999934644,0.00526143
0.512999934644,0.00529158
0.513999934644,0.00533178
0.514999934644,0.00534183
0.515999934644,0.00535188
0.516999934644,0.00535188
0.517999934644,0.00530163
0.518999934644,0.00528153
0.519999934644,0.00525138
0.520999934644,0.00516093
0.521999934644,0.00509058
0.522999934644,0.00503028
0.523999934644,0.00501018
0.524999934644,0.00500013
0.525999934644,0.00507048
0.526999934644,0.00508053
0.527999934644,0.00515088
0.528999934644,0.00518103
0.529999934644,0.00522123
0.530999934644,0.00532173
0.531999934644,0.00546244
0.532999934644,0.00558304
0.533999934644,0.00574384
0.534999934644,0.00586445
0.535999934644,0.0059951
0.536999934644,0.00610565
0.537999934644,0.00618606
0.538999934644,0.00626646
0.539999934644,0.00631671
0.540999934644,0.00629661
0.541999934644,0.00623631
0.542999934644,0.00622626
0.543999934644,0.00621621
0.544999934644,0.00628656
0.545999934644,0.00630666
0.546999934644,0.00626646
0.547999934644,0.00619611
0.548999934644,0.0061358
0.549999934644,0.0060152
0.550999934644,0.00596495
0.551999934644,0.00588455
0.552999934644,0.0058343
0.553999934644,0.00578405
0.554999934644,0.00569359
0.555999934644,0.00563329
0.556999934644,0.00556294
0.557999934644,0.00548254
0.558999934644,0.00537199
0.559999934644,0.00529158
0.560999934644,0.00519108
0.561999934644,0.00512073
0.562999934644,0.00505038
0.563999934644,0.00495993
0.564999934644,0.00491972
0.565999934644,0.00491972
0.566999934644,0.00488957
0.567999934644,0.00494987
0.568999934644,0.00494987
0.569999934644,0.00503028
0.570999934644,0.00515088
0.571999934644,0.00522123
0.572999934644,0.00530163
0.573999934644,0.00540214
0.574999934644,0.00542224
0.575999934644,0.00543229
0.576999934644,0.00548254
0.577999934644,0.00541219
0.578999934644,0.00539209
0.579999934644,0.00534183
0.580999934644,0.00527148
0.581999934644,0.00518103
0.582999934644,0.00515088
0.583999934644,0.00509058
0.584999934644,0.00508053
0.585999934644,0.00503028
0.586999934644,0.00505038
0.587999934644,0.00510063
0.588999934644,0.00513078
0.589999934644,0.00516093
0.590999934644,0.00525138
0.591999934644,0.00531168
0.592999934644,0.00537199
0.593999934644,0.00544234
0.594999934644,0.00547249
0.595999934644,0.00547249
0.596999934644,0.00550264
0.597999934644,0.00545239
0.598999934644,0.00542224
0.599999934644,0.00536194
0.600999934644,0.00527148
0.601999934644,0.00523128
0.602999934644,0.00518103
0.603999934644,0.00512073
0.604999934644,0.00512073
0.605999934644,0.00508053
0.606999934644,0.00504033
0.607999934644,0.00512073
0.608999934644,0.00514083
0.609999934644,0.00522123
0.610999934644,0.00528153
0.611999934644,0.00533178
0.612999934644,0.00538204
0.613999934644,0.00547249
0.614999934644,0.00549259
0.615999934644,0.00553279
0.616999934644,0.00555289
0.617999934644,0.00552274
0.618999934644,0.00544234
0.619999934644,0.00541219
0.620999934644,0.00533178
0.621999934644,0.00530163
0.622999934644,0.00521118
0.623999934644,0.00514083
0.624999934644,0.00516093
0.625999934644,0.00508053
0.626999934644,0.00508053
0.627999934644,0.00512073
0.628999934644,0.00515088
0.629999934644,0.00519108
0.630999934644,0.00530163
0.631999934644,0.00531168
0.632999934644,0.00536194
0.633999934644,0.00545239
0.634999934644,0.00548254
0.635999934644,0.00549259
0.636999934644,0.00552274
0.637999934644,0.00546244
0.638999934644,0.00546244
0.639999934644,0.00541219
0.640999934644,0.00532173
0.641999934644,0.00531168
0.642999934644,0.00523128
0.643999934644,0.00515088
0.644999934644,0.00513078
0.645999934644,0.00509058
0.646999934644,0.00507048
0.647999934644,0.00514083
0.648999934644,0.00520113
0.649999934644,0.00523128
0.650999934644,0.00528153
0.651999934644,0.00534183
0.652999934644,0.00538204
0.653999934644,0.00546244
0.654999934644,0.00548254
0.655999934644,0.00554284
0.656999934644,0.00556294
0.657999934644,0.00551269
0.658999934644,0.00547249
0.659999934644,0.00544234
0.660999934644,0.00536194
0.661999934644,0.00529158
0.662999934644,0.00524133
0.663999934644,0.00517098
0.664999934644,0.00513078
0.665999934644,0.00511068
0.666999934644,0.00511068
0.667999934644,0.00518103
0.668999934644,0.00521118
0.669999934644,0.00525138
0.670999934644,0.00531168
0.671999934644,0.00537199
0.672999934644,0.00545239
0.673999934644,0.00551269
0.674999934644,0.00555289
0.675999934644,0.00556294
0.676999934644,0.00557299
0.677999934644,0.00557299
0.678999934644,0.00555289
0.679999934644,0.00550264
0.680999934644,0.00541219
0.681999934644,0.00535188
0.682999934644,0.00528153
0.683999934644,0.00522123
0.684999934644,0.00524133
0.685999934644,0.00519108
0.686999934644,0.00520113
0.687999934644,0.00524133
0.688999934644,0.00527148
0.689999934644,0.00533178
0.690999934644,0.00540214
0.691999934644,0.00546244
0.692999934644,0.00551269
0.693999934644,0.00559309
0.694999934644,0.00558304
0.695999934644,0.00564334
0.696999934644,0.00568354
0.697999934644,0.00566344
0.698999934644,0.00560314
0.699999934644,0.00561319
0.700999934644,0.00553279
0.701999934644,0.00550264
0.702999934644,0.00543229
0.703999934644,0.00535188
0.704999934644,0.00532173
0.705999934644,0.00532173
0.706999934644,0.00526143
0.707999934644,0.00532173
0.708999934644,0.00536194
0.709999934644,0.00538204
0.710999934644,0.00546244
0.711999934644,0.00552274
0.712999934644,0.00559309
0.713999934644,0.00567349
0.714999934644,0.00569359
0.715999934644,0.00572374
0.716999934644,0.00575389
0.717999934644,0.00566344
0.718999934644,0.00564334
0.719999934644,0.00558304
0.720999934644,0.00552274
0.721999934644,0.00547249
0.722999934644,0.00541219
0.723999934644,0.00536194
0.724999934644,0.00534183
0.725999934644,0.00528153
0.726999934644,0.00527148
0.727999934644,0.00531168
0.728999934644,0.00531168
0.729999934644,0.00537199
0.730999934644,0.00544234
0.731999934644,0.00553279
0.732999934644,0.00557299
0.733999934644,0.00564334
0.734999934644,0.00564334
0.735999934644,0.00567349
0.736999934644,0.00568354
0.737999934644,0.00569359
0.738999934644,0.00564334
0.739999934644,0.00559309
0.740999934644,0.00552274
0.741999934644,0.00545239
0.742999934644,0.00537199
0.743999934644,0.00533178
0.744999934644,0.00531168
0.745999934644,0.00528153
0.746999934644,0.00526143
0.747999934644,0.00529158
0.748999934644,0.00531168
0.749999934644,0.00533178
0.750999934644,0.00542224
0.751999934644,0.00550264
0.752999934644,0.00555289
0.753999934644,0.00560314
0.754999934644,0.00563329
0.755999934644,0.00566344
0.756999934644,0.00569359
0.757999934644,0.00566344
0.758999934644,0.00561319
0.759999934644,0.00556294
0.760999934644,0.00548254
0.761999934644,0.00541219
0.762999934644,0.00536194
0.763999934644,0.00527148
0.764999934644,0.00527148
0.765999934644,0.00521118
0.766999934644,0.00520113
0.767999934644,0.00522123
0.768999934644,0.00526143
0.769999934644,0.00529158
0.770999934644,0.00535188
0.771999934644,0.00543229
0.772999934644,0.00550264
0.773999934644,0.00556294
0.774999934644,0.00560314
0.775999934644,0.00562324
0.776999934644,0.00562324
0.777999934644,0.00561319
0.778999934644,0.00556294
0.779999934644,0.00550264
0.780999934644,0.00541219
0.781999934644,0.00536194
0.782999934644,0.00529158
0.783999934644,0.00521118
0.784999934644,0.00518103
0.785999934644,0.00519108
0.786999934644,0.00517098
0.787999934644,0.00519108
0.788999934644,0.00521118
0.789999934644,0.00525138
0.790999934644,0.00533178
0.791999934644,0.00537199
0.792999934644,0.00546244
0.793999934644,0.00552274
0.794999934644,0.00556294
0.795999934644,0.00557299
0.796999934644,0.00562324
0.797999934644,0.00557299
0.798999934644,0.00554284
0.799999934644,0.00552274
0.800999934644,0.00545239
0.801999934644,0.00537199
0.802999934644,0.00531168
0.803999934644,0.00521118
0.804999934644,0.00523128
0.805999934644,0.00519108
0.806999934644,0.00518103
0.807999934644,0.00523128
0.808999934644,0.00525138
0.809999934644,0.00526143
0.810999934644,0.00536194
0.811999934644,0.00541219
0.812999934644,0.00546244
0.813999934644,0.00553279
0.814999934644,0.00558304
0.815999934644,0.00561319
0.816999934644,0.00560314
0.817999934644,0.00556294
0.818999934644,0.00554284
0.819999934644,0.00551269
0.820999934644,0.00543229
0.821999934644,0.00539209
0.822999934644,0.00529158
0.823999934644,0.00525138
0.824999934644,0.00522123
0.825999934644,0.00522123
0.826999934644,0.00520113
0.827999934644,0.00523128
0.828999934644,0.00524133
0.829999934644,0.00529158
0.830999934644,0.00535188
0.831999934644,0.00543229
0.832999934644,0.00548254
0.833999934644,0.00555289
0.834999934644,0.00559309
0.835999934644,0.00563329
0.836999934644,0.00564334
0.837999934644,0.00563329
0.838999934644,0.00558304
0.839999934644,0.00554284
0.840999934644,0.00549259
0.841999934644,0.00542224
0.842999934644,0.00534183
0.843999934644,0.00527148
0.844999934644,0.00526143
0.845999934644,0.00524133
0.846999934644,0.00523128
0.847999934644,0.00524133
0.848999934644,0.00529158
0.849999934644,0.00530163
0.850999934644,0.00539209
0.851999934644,0.00543229
0.852999934644,0.00551269
0.853999934644,0.00558304
0.854999934644,0.00566344
0.855999934644,0.00564334
0.856999934644,0.00568354
0.857999934644,0.00564334
0.858999934644,0.00561319
0.859999934644,0.00556294
0.860999934644,0.00546244
0.861999934644,0.00539209
0.862999934644,0.00534183
0.863999934644,0.00530163
0.864999934644,0.00523128
0.865999934644,0.00523128
0.866999934644,0.00522123
0.867999934644,0.00526143
0.868999934644,0.00528153
0.869999934644,0.00535188
0.870999934644,0.00541219
0.871999934644,0.00544234
0.872999934644,0.00549259
0.873999934644,0.00561319
0.874999934644,0.00566344
0.875999934644,0.00568354
0.876999934644,0.00570364
0.877999934644,0.00569359
0.878999934644,0.00563329
0.879999934644,0.00559309
0.880999934644,0.00550264
0.881999934644,0.00543229
0.882999934644,0.00535188
0.883999934644,0.00529158
0.884999934644,0.00527148
0.885999934644,0.00523128
0.886999934644,0.00521118
0.887999934644,0.00521118
0.888999934644,0.00528153
0.889999934644,0.00532173
0.890999934644,0.00538204
0.891999934644,0.00546244
0.892999934644,0.00553279
0.893999934644,0.00558304
0.894999934644,0.00561319
0.895999934644,0.00560314
0.896999934644,0.00562324
0.897999934644,0.00558304
0.898999934644,0.00558304
0.899999934644,0.00554284
0.900999934644,0.00542224
0.901999934644,0.00541219
0.902999934644,0.00534183
0.903999934644,0.00521118
0.904999934644,0.00519108
0.905999934644,0.00519108
0.906999934644,0.00517098
0.907999934644,0.00521118
0.908999934644,0.00521118
0.909999934644,0.00524133
0.910999934644,0.00533178
0.911999934644,0.00538204
0.912999934644,0.00537199
0.913999934644,0.00549259
0.914999934644,0.00556294
0.915999934644,0.00558304
0.916999934644,0.00555289
0.917999934644,0.00555289
0.918999934644,0.00549259
0.919999934644,0.00543229
0.920999934644,0.00539209
0.921999934644,0.00536194
0.922999934644,0.00526143
0.923999934644,0.00518103
0.924999934644,0.00516093
0.925999934644,0.00513078
0.926999934644,0.00511068
0.927999934644,0.00512073
0.928999934644,0.00517098
0.929999934644,0.00519108
0.930999934644,0.00529158
0.931999934644,0.00535188
0.932999934644,0.00541219
0.933999934644,0.00545239
0.934999934644,0.00554284
0.935999934644,0.00554284
0.936999934644,0.00557299
0.937999934644,0.00554284
0.938999934644,0.00549259
0.939999934644,0.00544234
0.940999934644,0.00536194
0.941999934644,0.00531168
0.942999934644,0.00527148
0.943999934644,0.00519108
0.944999934644,0.00516093
0.945999934644,0.00512073
0.946999934644,0.00510063
0.947999934644,0.00516093
0.948999934644,0.00519108
0.949999934644,0.00522123
0.950999934644,0.00528153
0.951999934644,0.00538204
0.952999934644,0.00540214
0.953999934644,0.00549259
0.954999934644,0.00551269
0.955999934644,0.00555289
0.956999934644,0.00556294
0.957999934644,0.00555289
0.958999934644,0.00550264
0.959999934644,0.00545239
0.960999934644,0.00536194
0.961999934644,0.00532173
0.962999934644,0.00527148
0.963999934644,0.00516093
0.964999934644,0.00515088
0.965999934644,0.00514083
0.966999934644,0.00512073
0.967999934644,0.00516093
0.968999934644,0.00519108
0.969999934644,0.00520113
0.970999934644,0.00528153
0.971999934644,0.00533178
0.972999934644,0.00540214
0.973999934644,0.00546244
0.974999934644,0.00553279
0.975999934644,0.00553279
0.976999934644,0.00557299
0.977999934644,0.00554284
0.978999934644,0.00551269
0.979999934644,0.00547249
0.980999934644,0.00542224
0.981999934644,0.00533178
0.982999934644,0.00527148
0.983999934644,0.00517098
0.984999934644,0.00518103
0.985999934644,0.00515088
0.986999934644,0.00511068
0.987999934644,0.00512073
0.988999934644,0.00514083
0.989999934644,0.00519108
0.990999934644,0.00524133
0.991999934644,0.00529158
0.992999934644,0.00532173
0.993999934644,0.00541219
0.994999934644,0.00539209
0.995999934644,0.00538204
0.996999934644,0.00541219
0.997999934644,0.00537199
0.998999934644,0.00530163
